# ljz_20131022_MR_Chym1_ELUTE.mzML
#
# index: 4654
# id: controllerType=0 controllerNumber=1 scan=10896
# scanNumber: 10896
# massAnalyzerType: quadrupole
# scanEvent: 2
# msLevel: 2
# retentionTime: 2682.77
# filterString: FTMS + p NSI d Full ms2 439.86@hcd28.00 [100.00-1365.00]
# mzLow: 99.0036
# mzHigh: 1378.96
# basePeakMZ: 110.072
# basePeakIntensity: 60859.6
# totalIonCurrent: 348244
# precursorCount: 1
# precursor 0: 439.856 596060
# binary (1476): 
     99.0036	      0.0000
     99.0045	      0.0000
     99.0055	      0.0000
     99.0064	      0.0000
    101.0002	      0.0000
    101.0012	      0.0000
    101.0022	      0.0000
    101.0031	      0.0000
    101.0041	    716.5514
    101.0051	   1260.7784
    101.0060	   1478.7035
    101.0070	   1189.7760
    101.0079	    613.5765
    101.0088	      0.0000
    101.0098	      0.0000
    101.0107	      0.0000
    101.0117	      0.0000
    110.0583	      0.0000
    110.0594	      0.0000
    110.0605	      0.0000
    110.0615	      0.0000
    110.0626	      0.0000
    110.0637	      0.0000
    110.0648	      0.0000
    110.0661	   1443.3054
    110.0672	   2354.7441
    110.0683	   6847.7817
    110.0694	  21796.6621
    110.0705	  41139.9531
    110.0716	  59983.3984
    110.0727	  54261.9023
    110.0738	  33287.7148
    110.0749	  13872.0596
    110.0760	   3029.7861
    110.0771	    567.4881
    110.0780	      0.0000
    110.0791	      0.0000
    110.0802	      0.0000
    110.0813	      0.0000
    111.0684	      0.0000
    111.0695	      0.0000
    111.0706	      0.0000
    111.0717	      0.0000
    111.0728	    379.5279
    111.0739	    871.9742
    111.0750	   1186.9592
    111.0761	   1080.4720
    111.0772	    650.3128
    111.0783	      0.0000
    111.0794	      0.0000
    111.0806	      0.0000
    111.0817	      0.0000
    112.3348	      0.0000
    112.3360	      0.0000
    112.3371	      0.0000
    112.3382	      0.0000
    112.3394	    680.9532
    112.3405	    990.2810
    112.3416	   1016.4539
    112.3427	    751.5580
    112.3439	    374.3837
    112.3450	      0.0000
    112.3461	      0.0000
    112.3472	      0.0000
    112.3483	      0.0000
    117.0571	      0.0000
    117.0583	      0.0000
    117.0595	      0.0000
    117.0607	      0.0000
    117.0619	    390.6640
    117.0631	   1212.0513
    117.0643	   2800.0405
    117.0655	   4482.6680
    117.0667	   4712.4229
    117.0679	   3038.1890
    117.0691	   1386.7098
    117.0703	    530.7679
    117.0717	      0.0000
    117.0729	      0.0000
    117.0741	      0.0000
    117.0753	      0.0000
    120.0707	      0.0000
    120.0719	      0.0000
    120.0732	      0.0000
    120.0744	      0.0000
    120.0757	    561.4832
    120.0769	   1587.7229
    120.0782	   5081.3442
    120.0794	  10815.6758
    120.0807	  16987.1016
    120.0819	  17593.0430
    120.0832	  11465.6094
    120.0844	   5534.9287
    120.0857	   1211.4940
    120.0869	    144.7951
    120.0879	      0.0000
    120.0891	      0.0000
    120.0904	      0.0000
    120.0916	      0.0000
    121.0776	      0.0000
    121.0789	      0.0000
    121.0801	      0.0000
    121.0814	      0.0000
    121.0826	    665.0151
    121.0839	   1156.4469
    121.0852	   1304.2241
    121.0864	    997.8325
    121.0877	    483.0823
    121.0890	      0.0000
    121.0902	      0.0000
    121.0915	      0.0000
    121.0927	      0.0000
    122.0642	      0.0000
    122.0655	      0.0000
    122.0668	      0.0000
    122.0681	      0.0000
    122.0693	    673.0792
    122.0706	    990.6660
    122.0719	   1099.7281
    122.0732	    916.4394
    122.0745	    549.1855
    122.0763	      0.0000
    122.0776	      0.0000
    122.0789	      0.0000
    122.0802	      0.0000
    129.0920	      0.0000
    129.0934	      0.0000
    129.0948	      0.0000
    129.0961	      0.0000
    129.0975	    255.0911
    129.0989	    930.9673
    129.1003	   2702.5112
    129.1017	   4868.5742
    129.1031	   6735.7295
    129.1045	   5590.7612
    129.1059	   3193.5789
    129.1073	    936.3878
    129.1087	      0.0000
    129.1094	      0.0000
    129.1108	      0.0000
    129.1121	      0.0000
    129.1135	      0.0000
    132.0733	      0.0000
    132.0748	      0.0000
    132.0762	      0.0000
    132.0776	      0.0000
    132.0791	    357.4118
    132.0805	   1096.3165
    132.0820	   1863.3013
    132.0834	   2150.8098
    132.0848	   1778.8196
    132.0863	   1071.6450
    132.0877	    529.2266
    132.0892	      0.0000
    132.0906	      0.0000
    132.0920	      0.0000
    132.0935	      0.0000
    132.0949	      0.0000
    132.0964	      0.0000
    132.0978	      0.0000
    132.0992	    522.8128
    132.1007	   1107.6196
    132.1021	   1429.7803
    132.1036	   1257.9814
    132.1050	    731.7238
    132.1064	      0.0000
    132.1079	      0.0000
    132.1093	      0.0000
    132.1108	      0.0000
    133.0345	      0.0000
    133.0360	      0.0000
    133.0374	      0.0000
    133.0389	      0.0000
    133.0403	    603.9932
    133.0418	   1009.6056
    133.0433	   1195.4473
    133.0447	   1044.1869
    133.0462	    648.3004
    133.0476	      0.0000
    133.0491	      0.0000
    133.0505	      0.0000
    133.0520	      0.0000
    133.0534	      0.0000
    133.0549	      0.0000
    133.0564	      0.0000
    133.0578	    297.7273
    133.0593	    776.5945
    133.0607	   1128.9766
    133.0622	   1084.4678
    133.0636	    672.8136
    133.0651	      0.0000
    133.0665	      0.0000
    133.0680	      0.0000
    133.0694	      0.0000
    134.9827	      0.0000
    134.9842	      0.0000
    134.9857	      0.0000
    134.9872	      0.0000
    134.9886	    444.8895
    134.9901	   1093.3041
    134.9916	   2303.3281
    134.9931	   3490.9282
    134.9946	   2252.1184
    134.9961	   1482.9897
    134.9976	    673.1857
    134.9990	      0.0000
    135.0005	      0.0000
    135.0020	      0.0000
    135.0035	      0.0000
    138.0585	      0.0000
    138.0600	      0.0000
    138.0616	      0.0000
    138.0631	      0.0000
    138.0646	    625.4254
    138.0662	    969.3535
    138.0677	   1055.6050
    138.0692	    819.1166
    138.0708	    419.9331
    138.0723	      0.0000
    138.0739	      0.0000
    138.0754	      0.0000
    138.0770	      0.0000
    143.1075	      0.0000
    143.1091	      0.0000
    143.1107	      0.0000
    143.1124	      0.0000
    143.1140	    467.5318
    143.1156	   1336.6246
    143.1172	   2230.7263
    143.1189	   3544.7109
    143.1205	   1898.1464
    143.1221	    989.7924
    143.1237	    333.4706
    143.1253	      0.0000
    143.1270	      0.0000
    143.1286	      0.0000
    143.1302	      0.0000
    145.0497	      0.0000
    145.0514	      0.0000
    145.0530	      0.0000
    145.0547	      0.0000
    145.0563	    340.5873
    145.0580	    990.8472
    145.0596	   1696.6184
    145.0613	   1966.3413
    145.0630	   1591.2377
    145.0646	    864.8804
    145.0663	    289.8362
    145.0680	      0.0000
    145.0696	      0.0000
    145.0713	      0.0000
    145.0729	      0.0000
    150.0557	      0.0000
    150.0574	      0.0000
    150.0592	      0.0000
    150.0609	      0.0000
    150.0627	    362.5975
    150.0644	    796.9859
    150.0661	   1117.7075
    150.0679	   1124.2249
    150.0696	    812.5386
    150.0714	    381.5257
    150.0731	      0.0000
    150.0749	      0.0000
    150.0766	      0.0000
    150.0784	      0.0000
    156.0661	      0.0000
    156.0680	      0.0000
    156.0698	      0.0000
    156.0717	      0.0000
    156.0735	    367.9494
    156.0754	    840.8580
    156.0772	   1105.4086
    156.0791	    965.8004
    156.0809	    549.8646
    156.0828	      0.0000
    156.0846	      0.0000
    156.0865	      0.0000
    156.0883	      0.0000
    157.0715	      0.0000
    157.0733	      0.0000
    157.0752	      0.0000
    157.0771	      0.0000
    157.0789	    279.3514
    157.0808	    814.7733
    157.0827	   1422.1239
    157.0845	   1692.0615
    157.0864	   1425.0483
    157.0883	    831.5005
    157.0901	    333.8299
    157.0920	      0.0000
    157.0939	      0.0000
    157.0957	      0.0000
    157.0976	      0.0000
    159.1020	      0.0000
    159.1039	      0.0000
    159.1058	      0.0000
    159.1077	      0.0000
    159.1096	    636.0725
    159.1115	   1054.3596
    159.1134	   1185.9772
    159.1153	    927.8713
    159.1172	    467.2571
    159.1196	      0.0000
    159.1215	      0.0000
    159.1234	      0.0000
    159.1253	      0.0000
    166.0716	      0.0000
    166.0736	      0.0000
    166.0756	      0.0000
    166.0777	      0.0000
    166.0797	    444.4103
    166.0817	   1995.1635
    166.0838	   4340.9448
    166.0858	   6883.6436
    166.0878	   7146.0425
    166.0898	   4676.5742
    166.0919	   2243.0254
    166.0939	    425.5142
    166.0955	      0.0000
    166.0975	      0.0000
    166.0995	      0.0000
    166.1015	      0.0000
    167.0785	      0.0000
    167.0805	      0.0000
    167.0826	      0.0000
    167.0846	      0.0000
    167.0867	    610.9842
    167.0887	   1392.0028
    167.0908	   2176.7546
    167.0928	   3548.0056
    167.0949	   1989.4521
    167.0969	   1149.4094
    167.0990	    455.3493
    167.1010	      0.0000
    167.1030	      0.0000
    167.1051	      0.0000
    167.1071	      0.0000
    171.0970	      0.0000
    171.0991	      0.0000
    171.1012	      0.0000
    171.1034	      0.0000
    171.1055	    272.9374
    171.1076	    918.3715
    171.1097	   2703.5059
    171.1119	   4362.7383
    171.1140	   4647.0410
    171.1161	   2988.5398
    171.1182	   1364.2007
    171.1204	    558.0773
    171.1229	      0.0000
    171.1250	      0.0000
    171.1271	      0.0000
    171.1292	      0.0000
    173.1105	      0.0000
    173.1126	      0.0000
    173.1148	      0.0000
    173.1170	      0.0000
    173.1191	    142.7567
    173.1213	    813.4683
    173.1234	   2816.0500
    173.1256	   6504.5889
    173.1278	  10539.3711
    173.1299	  12009.5938
    173.1321	   8443.3447
    173.1342	   4528.5474
    173.1364	   1164.8177
    173.1386	      0.0000
    173.1404	      0.0000
    173.1425	      0.0000
    173.1447	      0.0000
    173.1469	      0.0000
    178.0394	      0.0000
    178.0416	      0.0000
    178.0439	      0.0000
    178.0461	      0.0000
    178.0484	    573.1736
    178.0506	   1042.9730
    178.0529	   1266.7068
    178.0551	   1044.9779
    178.0574	    542.7793
    178.0596	      0.0000
    178.0619	      0.0000
    178.0641	      0.0000
    178.0664	      0.0000
    179.0782	      0.0000
    179.0805	      0.0000
    179.0827	      0.0000
    179.0850	      0.0000
    179.0873	    385.8824
    179.0895	   1042.0967
    179.0918	   1602.0371
    179.0941	   1655.7274
    179.0964	   1187.0087
    179.0986	    567.2135
    179.1009	      0.0000
    179.1032	      0.0000
    179.1054	      0.0000
    179.1077	      0.0000
    181.0931	      0.0000
    181.0954	      0.0000
    181.0977	      0.0000
    181.1000	      0.0000
    181.1023	    324.1147
    181.1046	    873.6667
    181.1070	   1401.4458
    181.1093	   1556.5007
    181.1116	   1234.0803
    181.1139	    673.5628
    181.1163	      0.0000
    181.1186	      0.0000
    181.1209	      0.0000
    181.1232	      0.0000
    183.1000	      0.0000
    183.1023	      0.0000
    183.1047	      0.0000
    183.1070	      0.0000
    183.1094	    535.8710
    183.1117	    987.9232
    183.1141	   1194.1649
    183.1164	   1011.6255
    183.1188	    580.5031
    183.1211	      0.0000
    183.1234	      0.0000
    183.1258	      0.0000
    183.1281	      0.0000
    186.7009	      0.0000
    186.7033	      0.0000
    186.7057	      0.0000
    186.7081	      0.0000
    186.7106	    565.4830
    186.7130	    935.7585
    186.7154	   1142.2937
    186.7178	   1031.5492
    186.7202	    648.9631
    186.7226	      0.0000
    186.7250	      0.0000
    186.7275	      0.0000
    186.7299	      0.0000
    192.0596	      0.0000
    192.0621	      0.0000
    192.0647	      0.0000
    192.0672	      0.0000
    192.0697	    467.1123
    192.0722	    930.0317
    192.0748	   1336.4230
    192.0773	   1408.4529
    192.0798	   1084.5836
    192.0823	    569.4167
    192.0849	      0.0000
    192.0874	      0.0000
    192.0900	      0.0000
    192.0925	      0.0000
    197.0844	      0.0000
    197.0870	      0.0000
    197.0896	      0.0000
    197.0923	      0.0000
    197.0949	    570.9845
    197.0975	   1717.3365
    197.1001	   3289.3547
    197.1028	   4473.8672
    197.1054	   3336.0579
    197.1080	   1671.3322
    197.1106	    601.3893
    197.1132	      0.0000
    197.1159	      0.0000
    197.1185	      0.0000
    197.1211	      0.0000
    201.1051	      0.0000
    201.1078	      0.0000
    201.1105	      0.0000
    201.1132	      0.0000
    201.1160	    696.1793
    201.1187	   2244.7217
    201.1214	   3907.3386
    201.1241	   4790.1719
    201.1268	   3386.6602
    201.1295	   1738.5764
    201.1322	    580.5529
    201.1350	      0.0000
    201.1377	      0.0000
    201.1404	      0.0000
    201.1431	      0.0000
    208.0539	      0.0000
    208.0568	      0.0000
    208.0596	      0.0000
    208.0625	      0.0000
    208.0653	    362.0515
    208.0682	    976.3340
    208.0710	   1567.9474
    208.0739	   1719.0840
    208.0767	   1312.8861
    208.0796	    665.6970
    208.0824	      0.0000
    208.0852	      0.0000
    208.0881	      0.0000
    208.0909	      0.0000
    209.0854	      0.0000
    209.0882	      0.0000
    209.0911	      0.0000
    209.0940	      0.0000
    209.0968	    610.3718
    209.0997	   1385.7975
    209.1026	   2025.3992
    209.1054	   2065.0002
    209.1083	   1462.9380
    209.1112	    675.2446
    209.1140	      0.0000
    209.1169	      0.0000
    209.1198	      0.0000
    209.1226	      0.0000
    210.0061	      0.0000
    210.0090	      0.0000
    210.0118	      0.0000
    210.0147	      0.0000
    210.0176	    350.8038
    210.0205	    764.0718
    210.0234	   1165.7357
    210.0263	   1283.5177
    210.0292	    997.1614
    210.0320	    496.7152
    210.0349	      0.0000
    210.0378	      0.0000
    210.0407	      0.0000
    210.0436	      0.0000
    210.0927	      0.0000
    210.0956	      0.0000
    210.0985	      0.0000
    210.1014	      0.0000
    210.1042	    246.6228
    210.1071	    747.7774
    210.1100	   1165.4342
    210.1129	   1192.8370
    210.1158	    825.4350
    210.1187	    353.3101
    210.1217	      0.0000
    210.1245	      0.0000
    210.1274	      0.0000
    210.1303	      0.0000
    216.0815	      0.0000
    216.0845	      0.0000
    216.0875	      0.0000
    216.0905	      0.0000
    216.0935	    526.3799
    216.0966	   1007.4380
    216.0996	   1233.6190
    216.1026	   1036.8181
    216.1056	    579.8186
    216.1087	      0.0000
    216.1117	      0.0000
    216.1147	      0.0000
    216.1177	      0.0000
    225.0720	      0.0000
    225.0752	      0.0000
    225.0784	      0.0000
    225.0816	      0.0000
    225.0849	    348.4327
    225.0881	   1591.1173
    225.0913	   5740.9385
    225.0945	  11132.5293
    225.0977	  16439.6875
    225.1009	  15097.8672
    225.1041	   9373.1455
    225.1073	   4061.7039
    225.1105	   1039.2668
    225.1137	    309.2680
    225.1168	      0.0000
    225.1200	      0.0000
    225.1232	      0.0000
    225.1264	      0.0000
    226.0810	      0.0000
    226.0842	      0.0000
    226.0874	      0.0000
    226.0907	      0.0000
    226.0939	    412.2817
    226.0971	    800.5931
    226.1003	   1016.9943
    226.1036	    880.4352
    226.1068	    474.3045
    226.1101	      0.0000
    226.1133	      0.0000
    226.1166	      0.0000
    226.1198	      0.0000
    229.1000	      0.0000
    229.1033	      0.0000
    229.1066	      0.0000
    229.1099	      0.0000
    229.1132	    624.3001
    229.1165	   1106.9095
    229.1198	   1328.7378
    229.1231	   1149.9456
    229.1263	    716.5723
    229.1296	      0.0000
    229.1329	      0.0000
    229.1362	      0.0000
    229.1395	      0.0000
    240.6109	      0.0000
    240.6145	      0.0000
    240.6180	      0.0000
    240.6215	      0.0000
    240.6251	    619.6627
    240.6286	   1065.1394
    240.6322	   1239.3403
    240.6357	   1024.1263
    240.6392	    588.2985
    240.6428	      0.0000
    240.6463	      0.0000
    240.6499	      0.0000
    240.6534	      0.0000
    241.0540	      0.0000
    241.0576	      0.0000
    241.0611	      0.0000
    241.0647	      0.0000
    241.0682	    391.1249
    241.0718	    945.1129
    241.0753	   1286.0922
    241.0789	   1137.5381
    241.0824	    640.2964
    241.0861	      0.0000
    241.0896	      0.0000
    241.0932	      0.0000
    241.0967	      0.0000
    248.0953	      0.0000
    248.0990	      0.0000
    248.1027	      0.0000
    248.1064	      0.0000
    248.1101	    727.6033
    248.1138	   1238.1890
    248.1175	   1306.3093
    248.1212	    886.1620
    248.1249	    348.1957
    248.1286	      0.0000
    248.1323	      0.0000
    248.1360	      0.0000
    248.1397	      0.0000
    254.1109	      0.0000
    254.1147	      0.0000
    254.1186	      0.0000
    254.1224	      0.0000
    254.1263	    711.9534
    254.1301	   1806.3076
    254.1340	   3329.9407
    254.1378	   4434.2500
    254.1416	   3402.4805
    254.1455	   1901.2740
    254.1493	    675.3181
    254.1533	      0.0000
    254.1571	      0.0000
    254.1610	      0.0000
    254.1648	      0.0000
    263.1154	      0.0000
    263.1195	      0.0000
    263.1235	      0.0000
    263.1276	      0.0000
    263.1316	    601.4753
    263.1357	   1438.2264
    263.1397	   3348.5481
    263.1437	   4077.6343
    263.1478	   3068.5735
    263.1518	   1260.8844
    263.1559	    500.6633
    263.1599	      0.0000
    263.1640	      0.0000
    263.1680	      0.0000
    263.1721	      0.0000
    263.6181	      0.0000
    263.6222	      0.0000
    263.6262	      0.0000
    263.6303	      0.0000
    263.6344	    612.2781
    263.6384	   1155.5127
    263.6425	   1535.3296
    263.6465	   1477.1826
    263.6506	   1005.1366
    263.6547	    442.8862
    263.6587	      0.0000
    263.6628	      0.0000
    263.6668	      0.0000
    263.6709	      0.0000
    266.0958	      0.0000
    266.0999	      0.0000
    266.1040	      0.0000
    266.1081	      0.0000
    266.1122	    592.3262
    266.1163	   1410.8438
    266.1205	   3404.2051
    266.1246	   4210.7993
    266.1287	   3202.2898
    266.1328	   1782.7527
    266.1369	    702.7751
    266.1410	      0.0000
    266.1452	      0.0000
    266.1493	      0.0000
    266.1534	      0.0000
    271.0892	      0.0000
    271.0935	      0.0000
    271.0977	      0.0000
    271.1019	      0.0000
    271.1062	    591.8938
    271.1104	   1254.2777
    271.1146	   1692.8807
    271.1189	   1564.1331
    271.1231	    989.1516
    271.1273	    389.5485
    271.1316	      0.0000
    271.1358	      0.0000
    271.1400	      0.0000
    271.1443	      0.0000
    274.5168	      0.0000
    274.5212	      0.0000
    274.5255	      0.0000
    274.5298	      0.0000
    274.5341	    376.0785
    274.5384	    780.4513
    274.5427	   1017.0736
    274.5470	    928.2253
    274.5514	    586.1033
    274.5558	      0.0000
    274.5601	      0.0000
    274.5644	      0.0000
    274.5687	      0.0000
    278.7237	      0.0000
    278.7281	      0.0000
    278.7325	      0.0000
    278.7369	      0.0000
    278.7413	    363.4642
    278.7457	    778.0877
    278.7502	   1025.7034
    278.7546	    912.9031
    278.7590	    525.6066
    278.7634	      0.0000
    278.7678	      0.0000
    278.7722	      0.0000
    278.7766	      0.0000
    282.0907	      0.0000
    282.0952	      0.0000
    282.0997	      0.0000
    282.1042	      0.0000
    282.1087	    442.3317
    282.1132	    979.1957
    282.1177	   1389.1174
    282.1222	   1346.4282
    282.1267	    858.3699
    282.1312	    299.2409
    282.1357	      0.0000
    282.1402	      0.0000
    282.1447	      0.0000
    282.1491	      0.0000
    285.1032	      0.0000
    285.1077	      0.0000
    285.1123	      0.0000
