# ljz_20131022_MR_Chym1_ELUTE.mzML
#
# index: 4657
# id: controllerType=0 controllerNumber=1 scan=10899
# scanNumber: 10899
# massAnalyzerType: quadrupole
# scanEvent: 2
# msLevel: 2
# retentionTime: 2683.24
# filterString: FTMS + p NSI d Full ms2 423.73@hcd28.00 [100.00-885.00]
# mzLow: 99.0036
# mzHigh: 894.013
# basePeakMZ: 132.103
# basePeakIntensity: 181424
# totalIonCurrent: 1.81622e+006
# precursorCount: 1
# precursor 0: 423.726 2.48622e+006
# binary (1930): 
     99.0036	      0.0000
     99.0045	      0.0000
     99.0055	      0.0000
     99.0064	      0.0000
    100.9993	      0.0000
    101.0002	      0.0000
    101.0012	      0.0000
    101.0021	      0.0000
    101.0031	    348.4543
    101.0041	   1057.1423
    101.0050	   1967.1035
    101.0060	   2511.7568
    101.0070	   2280.2458
    101.0079	   1446.5577
    101.0089	    616.0057
    101.0101	      0.0000
    101.0110	      0.0000
    101.0120	      0.0000
    101.0129	      0.0000
    101.0621	      0.0000
    101.0630	      0.0000
    101.0640	      0.0000
    101.0650	      0.0000
    101.0659	    437.9216
    101.0669	   1067.6075
    101.0679	   2394.9888
    101.0688	   6751.3110
    101.0698	  19298.2695
    101.0707	  33626.3555
    101.0717	  45152.7422
    101.0727	  36717.6250
    101.0736	  21599.0000
    101.0746	   7364.3569
    101.0756	   1070.3553
    101.0765	      0.0000
    101.0773	      0.0000
    101.0782	      0.0000
    101.0792	      0.0000
    101.0802	      0.0000
    102.0687	      0.0000
    102.0696	      0.0000
    102.0706	      0.0000
    102.0716	      0.0000
    102.0726	    487.7003
    102.0736	   1176.5143
    102.0745	   1752.0341
    102.0755	   1760.3674
    102.0765	   1196.5391
    102.0775	    511.2597
    102.0784	      0.0000
    102.0794	      0.0000
    102.0804	      0.0000
    102.0814	      0.0000
    103.0152	      0.0000
    103.0162	      0.0000
    103.0172	      0.0000
    103.0182	      0.0000
    103.0191	    746.7701
    103.0201	   1612.4069
    103.0211	   2435.0955
    103.0221	   2690.6521
    103.0231	   2198.6157
    103.0241	   1306.2955
    103.0251	    570.7992
    103.0261	      0.0000
    103.0271	      0.0000
    103.0280	      0.0000
    103.0290	      0.0000
    106.2201	      0.0000
    106.2211	      0.0000
    106.2221	      0.0000
    106.2232	      0.0000
    106.2242	    603.8953
    106.2252	   1044.0530
    106.2263	   1319.5692
    106.2273	   1257.2693
    106.2284	    880.4297
    106.2294	    403.9141
    106.2304	      0.0000
    106.2314	      0.0000
    106.2325	      0.0000
    106.2335	      0.0000
    110.0637	      0.0000
    110.0648	      0.0000
    110.0659	      0.0000
    110.0670	      0.0000
    110.0681	    636.3594
    110.0692	   1780.7184
    110.0703	   3769.1411
    110.0714	   5767.7017
    110.0725	   5357.6152
    110.0736	   3318.6609
    110.0747	   1422.5198
    110.0758	    427.8436
    110.0768	      0.0000
    110.0779	      0.0000
    110.0790	      0.0000
    110.0801	      0.0000
    120.0716	      0.0000
    120.0729	      0.0000
    120.0741	      0.0000
    120.0754	      0.0000
    120.0766	    419.2870
    120.0779	   1363.2693
    120.0791	   3538.3191
    120.0804	   5991.4380
    120.0816	   6761.2627
    120.0829	   4397.5171
    120.0841	   2001.5322
    120.0854	    131.7416
    120.0867	      0.0000
    120.0879	      0.0000
    120.0892	      0.0000
    120.0904	      0.0000
    129.0539	      0.0000
    129.0553	      0.0000
    129.0567	      0.0000
    129.0580	      0.0000
    129.0594	    263.9445
    129.0608	   1125.3490
    129.0622	   4058.8313
    129.0636	  12307.3379
    129.0650	  21362.1152
    129.0664	  28162.4180
    129.0678	  22237.8926
    129.0692	  12991.6211
    129.0706	   4255.1958
    129.0720	    850.6313
    129.0733	     81.6467
    129.0746	      0.0000
    129.0760	      0.0000
    129.0774	      0.0000
    129.0788	      0.0000
    129.0927	      0.0000
    129.0941	      0.0000
    129.0955	      0.0000
    129.0968	      0.0000
    129.0982	    454.9507
    129.0996	    908.9707
    129.1010	   1281.9064
    129.1024	   1340.9680
    129.1038	   1009.9815
    129.1052	    480.0716
    129.1068	      0.0000
    129.1082	      0.0000
    129.1096	      0.0000
    129.1110	      0.0000
    132.0865	      0.0000
    132.0879	      0.0000
    132.0894	      0.0000
    132.0908	      0.0000
    132.0923	      0.0000
    132.0937	   1747.4540
    132.0951	   4008.2388
    132.0966	   8652.3506
    132.0980	  25322.7969
    132.0995	  74745.3125
    132.1009	 132475.7500
    132.1023	 180928.3594
    132.1038	 150200.7969
    132.1052	  89579.8906
    132.1067	  32795.6680
    132.1081	   7055.5049
    132.1095	   1440.4364
    132.1107	      0.0000
    132.1122	      0.0000
    132.1136	   1811.3243
    132.1151	    501.5487
    132.1169	      0.0000
    132.1183	      0.0000
    132.1198	      0.0000
    132.1212	      0.0000
    133.0946	      0.0000
    133.0960	      0.0000
    133.0975	      0.0000
    133.0990	      0.0000
    133.1004	    823.7214
    133.1019	   2521.1079
    133.1033	   6376.1001
    133.1048	  10655.7656
    133.1062	  12911.0137
    133.1077	   9419.2793
    133.1092	   5211.2305
    133.1106	   1338.5901
    133.1121	     10.6003
    133.1131	      0.0000
    133.1146	      0.0000
    133.1160	      0.0000
    133.1175	      0.0000
    134.9827	      0.0000
    134.9842	      0.0000
    134.9856	      0.0000
    134.9871	      0.0000
    134.9886	    449.5291
    134.9901	   1287.0337
    134.9916	   3260.1418
    134.9931	   5049.1797
    134.9946	   4826.3447
    134.9961	   2945.7253
    134.9975	   1201.7582
    134.9990	    438.3935
    135.0005	      0.0000
    135.0020	      0.0000
    135.0034	      0.0000
    135.0049	      0.0000
    141.0561	      0.0000
    141.0576	      0.0000
    141.0592	      0.0000
    141.0608	      0.0000
    141.0624	    254.4414
    141.0640	    882.1124
    141.0656	   1508.6689
    141.0672	   1655.0076
    141.0688	   1206.8678
    141.0704	    541.2468
    141.0720	      0.0000
    141.0736	      0.0000
    141.0752	      0.0000
    141.0768	      0.0000
    143.1059	      0.0000
    143.1075	      0.0000
    143.1091	      0.0000
    143.1107	      0.0000
    143.1123	    380.5789
    143.1140	   1482.5646
    143.1156	   3334.5891
    143.1172	   5292.1309
    143.1188	   5417.4595
    143.1205	   3398.8916
    143.1221	   1484.7206
    143.1237	    589.0590
    143.1253	      0.0000
    143.1269	      0.0000
    143.1286	      0.0000
    143.1302	      0.0000
    155.0575	      0.0000
    155.0593	      0.0000
    155.0612	      0.0000
    155.0630	      0.0000
    155.0648	    323.7863
    155.0667	    947.3994
    155.0685	   1696.1400
    155.0703	   2093.6492
    155.0722	   1832.1478
    155.0740	   1097.4534
    155.0758	    424.7584
    155.0777	      0.0000
    155.0795	      0.0000
    155.0813	      0.0000
    155.0832	      0.0000
    155.1070	      0.0000
    155.1088	      0.0000
    155.1106	      0.0000
    155.1125	      0.0000
    155.1143	    552.1741
    155.1161	   1282.6790
    155.1180	   1900.1947
    155.1198	   1980.1876
    155.1216	   1500.2943
    155.1235	    817.7824
    155.1254	      0.0000
    155.1272	      0.0000
    155.1290	      0.0000
    155.1309	      0.0000
    157.0509	      0.0000
    157.0528	      0.0000
    157.0546	      0.0000
    157.0565	      0.0000
    157.0584	    786.2908
    157.0602	   1139.2963
    157.0621	   1228.9395
    157.0640	    982.5525
    157.0658	    552.0709
    157.0677	      0.0000
    157.0696	      0.0000
    157.0714	      0.0000
    157.0733	      0.0000
    157.1200	      0.0000
    157.1219	      0.0000
    157.1237	      0.0000
    157.1256	      0.0000
    157.1275	    466.7766
    157.1293	   2254.9695
    157.1312	   4703.6211
    157.1331	   7248.9512
    157.1350	   6968.1182
    157.1368	   4326.7715
    157.1387	   1902.3723
    157.1406	    327.6541
    157.1426	      0.0000
    157.1445	      0.0000
    157.1464	      0.0000
    157.1483	      0.0000
    158.0754	      0.0000
    158.0773	      0.0000
    158.0792	      0.0000
    158.0811	      0.0000
    158.0830	    733.2378
    158.0849	   1010.4832
    158.0868	   2943.2415
    158.0886	   9794.8965
    158.0905	  19027.4336
    158.0924	  28206.9629
    158.0943	  26139.5039
    158.0962	  16156.7432
    158.0981	   6929.8252
    158.0999	   1555.7155
    158.1018	    238.9280
    158.1035	      0.0000
    158.1054	      0.0000
    158.1073	      0.0000
    158.1092	      0.0000
    167.0088	      0.0000
    167.0109	      0.0000
    167.0129	      0.0000
    167.0150	      0.0000
    167.0170	    618.9292
    167.0191	   1068.8795
    167.0211	   1238.9579
    167.0232	    985.1871
    167.0252	    491.1573
    167.0272	      0.0000
    167.0293	      0.0000
    167.0313	      0.0000
    167.0334	      0.0000
    169.0479	      0.0000
    169.0500	      0.0000
    169.0521	      0.0000
    169.0542	      0.0000
    169.0562	    573.5086
    169.0583	   1334.6610
    169.0604	   1939.7728
    169.0625	   1940.2480
    169.0646	   1361.0514
    169.0667	    641.8779
    169.0687	      0.0000
    169.0708	      0.0000
    169.0729	      0.0000
    169.0750	      0.0000
    171.0991	      0.0000
    171.1012	      0.0000
    171.1033	      0.0000
    171.1055	      0.0000
    171.1076	    610.6319
    171.1097	   1365.9950
    171.1118	   1977.1685
    171.1140	   1967.5293
    171.1161	   1337.7332
    171.1182	    557.3815
    171.1208	      0.0000
    171.1229	      0.0000
    171.1251	      0.0000
    171.1272	      0.0000
    173.1127	      0.0000
    173.1149	      0.0000
    173.1170	      0.0000
    173.1192	      0.0000
    173.1213	    546.3517
    173.1235	   2500.3091
    173.1257	   5784.1514
    173.1278	   9380.5498
    173.1300	  10193.6494
    173.1322	   6823.9224
    173.1343	   3400.6738
    173.1365	    712.2506
    173.1383	      0.0000
    173.1405	      0.0000
    173.1426	      0.0000
    173.1448	      0.0000
    177.5897	      0.0000
    177.5919	      0.0000
    177.5942	      0.0000
    177.5964	      0.0000
    177.5986	    636.8483
    177.6009	    993.3582
    177.6031	   3455.6272
    177.6054	  11975.5898
    177.6076	  24921.1152
    177.6099	  38854.0273
    177.6121	  39802.3125
    177.6144	  25993.2363
    177.6166	  12776.7402
    177.6189	   3247.0957
    177.6211	    528.5024
    177.6232	      0.0000
    177.6254	      0.0000
    177.6277	      0.0000
    177.6299	      0.0000
    178.0957	      0.0000
    178.0979	      0.0000
    178.1002	      0.0000
    178.1024	      0.0000
    178.1047	    464.5605
    178.1070	   1243.8030
    178.1092	   3071.0129
    178.1115	   4866.4951
    178.1137	   5089.6362
    178.1160	   3367.9751
    178.1182	   1651.3180
    178.1205	    567.2152
    178.1230	      0.0000
    178.1252	      0.0000
    178.1275	      0.0000
    178.1297	      0.0000
    183.0930	      0.0000
    183.0954	      0.0000
    183.0977	      0.0000
    183.1001	      0.0000
    183.1024	    102.2021
    183.1048	   1212.5660
    183.1071	   5060.2861
    183.1095	  12112.6465
    183.1118	  19862.3379
    183.1142	  22413.8789
    183.1165	  15487.5371
    183.1189	   8105.1841
    183.1212	   2066.7800
    183.1236	    214.8472
    183.1258	      0.0000
    183.1281	      0.0000
    183.1305	      0.0000
    183.1328	      0.0000
    184.1028	      0.0000
    184.1052	      0.0000
    184.1076	      0.0000
    184.1099	      0.0000
    184.1123	    780.7578
    184.1147	   1465.8918
    184.1170	   1903.6414
    184.1194	   1763.5967
    184.1218	   1136.5272
    184.1241	    471.8234
    184.1265	      0.0000
    184.1289	      0.0000
    184.1313	      0.0000
    184.1336	      0.0000
    185.1116	      0.0000
    185.1140	      0.0000
    185.1164	      0.0000
    185.1188	      0.0000
    185.1211	    589.5430
    185.1235	   1454.0266
    185.1259	   3104.9753
    185.1283	   4202.1382
    185.1307	   3234.2234
    185.1331	   1451.2158
    185.1355	    546.8011
    185.1379	      0.0000
    185.1403	      0.0000
    185.1426	      0.0000
    185.1450	      0.0000
    185.1498	      0.0000
    185.1522	      0.0000
    185.1546	      0.0000
    185.1570	      0.0000
    185.1594	    556.3441
    185.1618	   1250.1997
    185.1642	   1736.1654
    185.1665	   1635.8893
    185.1689	   1028.6213
    185.1713	    372.5119
    185.1737	      0.0000
    185.1761	      0.0000
    185.1785	      0.0000
    185.1809	      0.0000
    186.0684	      0.0000
    186.0709	      0.0000
    186.0733	      0.0000
    186.0757	      0.0000
    186.0781	    116.2893
    186.0805	   1442.3806
    186.0829	   4714.0864
    186.0853	   8190.9956
    186.0877	  10827.4629
    186.0901	   8742.1777
    186.0925	   5145.8862
    186.0949	   1793.1410
    186.0973	    168.7212
    186.0998	      0.0000
    186.1022	      0.0000
    186.1046	      0.0000
    186.1070	      0.0000
    195.0583	      0.0000
    195.0609	      0.0000
    195.0635	      0.0000
    195.0661	      0.0000
    195.0687	    497.5954
    195.0712	   1209.0253
    195.0738	   2127.0796
    195.0764	   2557.0989
    195.0790	   2119.5435
    195.0816	   1151.6426
    195.0842	    335.2073
    195.0867	      0.0000
    195.0893	      0.0000
    195.0919	      0.0000
    195.0945	      0.0000
    196.0518	      0.0000
    196.0544	      0.0000
    196.0570	      0.0000
    196.0596	      0.0000
    196.0622	    342.8010
    196.0648	    884.8529
    196.0674	   1805.4205
    196.0700	   3635.1975
    196.0726	   4416.5181
    196.0752	   3288.5906
    196.0778	   1470.5472
    196.0804	    628.6998
    196.0830	      0.0000
    196.0856	      0.0000
    196.0882	      0.0000
    196.0908	      0.0000
    197.1106	      0.0000
    197.1132	      0.0000
    197.1159	      0.0000
    197.1185	      0.0000
    197.1211	    423.8114
    197.1237	   1205.7310
    197.1264	   2065.5757
    197.1290	   2388.3274
    197.1316	   1927.9415
    197.1342	   1057.6042
    197.1369	    381.9531
    197.1395	      0.0000
    197.1421	      0.0000
    197.1447	      0.0000
    197.1473	      0.0000
    199.1661	      0.0000
    199.1688	      0.0000
    199.1715	      0.0000
    199.1741	      0.0000
    199.1768	    734.0686
    199.1795	   1235.5186
    199.1821	   1389.6235
    199.1848	   1097.3645
    199.1875	    594.9674
    199.1901	      0.0000
    199.1928	      0.0000
    199.1954	      0.0000
    199.1981	      0.0000
    200.1025	      0.0000
    200.1052	      0.0000
    200.1079	      0.0000
    200.1106	      0.0000
    200.1133	    619.7319
    200.1160	   2028.9244
    200.1187	   3843.9412
    200.1213	   4983.7695
    200.1240	   3663.7292
    200.1267	   1934.4335
    200.1294	    396.7476
    200.1321	    494.5571
    200.1348	   1872.5548
    200.1375	   3249.3054
    200.1401	   3770.7253
    200.1428	   1926.5355
    200.1455	    901.9530
    200.1482	    261.9822
    200.1509	      0.0000
    200.1536	      0.0000
    200.1563	      0.0000
    200.1589	      0.0000
    201.1078	      0.0000
    201.1105	      0.0000
    201.1132	      0.0000
    201.1159	      0.0000
    201.1186	    679.1174
    201.1213	   1186.1062
    201.1240	   1388.1196
    201.1267	   1125.7386
    201.1294	    594.9690
    201.1319	      0.0000
    201.1346	      0.0000
    201.1373	      0.0000
    201.1400	      0.0000
    212.0821	      0.0000
    212.0851	      0.0000
    212.0880	      0.0000
    212.0909	      0.0000
    212.0939	    818.6470
    212.0968	   3242.1077
    212.0997	   6097.0503
    212.1026	   8693.6396
    212.1056	   7592.9604
    212.1085	   4657.9819
    212.1114	   1963.1722
    212.1144	    588.4245
    212.1176	      0.0000
    212.1205	      0.0000
    212.1234	      0.0000
    212.1263	      0.0000
    212.9994	      0.0000
    213.0024	      0.0000
    213.0053	      0.0000
    213.0083	      0.0000
    213.0112	    647.5098
    213.0142	   1206.0090
    213.0171	   1298.6631
    213.0201	    863.7054
    213.0230	    309.1999
    213.0261	      0.0000
    213.0290	      0.0000
    213.0320	      0.0000
    213.0349	      0.0000
    231.1297	      0.0000
    231.1330	      0.0000
    231.1363	      0.0000
    231.1397	      0.0000
    231.1430	      0.0000
    231.1463	      0.0000
    231.1497	      0.0000
    231.1534	   1230.8004
    231.1567	   1782.2578
    231.1600	   5382.9146
    231.1634	  17699.3691
    231.1667	  34073.4023
    231.1700	  50385.0000
    231.1734	  46634.2344
    231.1767	  28934.6426
    231.1800	  12571.2314
    231.1834	   2940.6636
    231.1867	    543.2027
    231.1897	      0.0000
    231.1930	      0.0000
    231.1963	      0.0000
    231.1997	      0.0000
    232.1496	      0.0000
    232.1529	      0.0000
    232.1563	      0.0000
    232.1597	      0.0000
    232.1630	    636.9031
    232.1664	   2133.3010
    232.1697	   3921.5796
    232.1731	   5531.9492
    232.1764	   4787.7725
    232.1798	   2831.0701
    232.1831	   1039.6316
    232.1865	    441.4259
    232.1901	      0.0000
    232.1934	      0.0000
    232.1968	      0.0000
    232.2001	      0.0000
    241.1004	      0.0000
    241.1040	      0.0000
    241.1075	      0.0000
    241.1111	      0.0000
    241.1146	    481.7162
    241.1182	   2165.4050
    241.1217	   7734.7534
    241.1253	  15331.2764
    241.1288	  23166.3516
    241.1324	  22103.7520
    241.1359	  13869.8984
    241.1395	   6280.1030
    241.1430	   1464.3563
    241.1466	     69.2301
    241.1492	      0.0000
    241.1528	      0.0000
    241.1563	      0.0000
    241.1599	      0.0000
    241.6117	      0.0000
    241.6152	      0.0000
    241.6188	      0.0000
    241.6224	      0.0000
    241.6259	    478.1544
    241.6295	   2801.0020
    241.6330	   8286.0146
    241.6366	  14092.4590
    241.6402	  17453.8066
    241.6437	  13008.9443
    241.6473	   7407.7739
    241.6509	   2493.0032
    241.6544	    664.5778
    241.6586	      0.0000
    241.6622	      0.0000
    241.6658	      0.0000
    241.6693	      0.0000
    242.1225	      0.0000
    242.1261	      0.0000
    242.1297	      0.0000
    242.1333	      0.0000
    242.1368	    513.5181
    242.1404	   1487.1061
    242.1440	   4787.0137
    242.1476	   6669.1030
    242.1511	   6414.2329
    242.1547	   4023.0803
    242.1583	   1749.6517
    242.1618	     11.1375
    242.1655	      0.0000
    242.1691	      0.0000
    242.1727	      0.0000
    242.1763	      0.0000
    243.1336	      0.0000
    243.1372	      0.0000
    243.1408	      0.0000
    243.1444	      0.0000
    243.1479	    610.6506
    243.1515	   1073.7721
    243.1551	   1199.8899
    243.1587	    896.3939
    243.1623	    403.2340
    243.1659	      0.0000
    243.1695	      0.0000
    243.1731	      0.0000
    243.1767	      0.0000
    251.0911	      0.0000
    251.0949	      0.0000
    251.0987	      0.0000
    251.1024	      0.0000
    251.1062	    380.9207
    251.1100	    943.0702
    251.1138	   1238.1501
    251.1175	   1007.1212
    251.1213	    472.1992
    251.1256	      0.0000
    251.1293	      0.0000
    251.1331	      0.0000
    251.1369	      0.0000
    252.0681	      0.0000
    252.0719	      0.0000
    252.0757	      0.0000
    252.0795	      0.0000
    252.0833	    362.4433
    252.0871	   1402.7897
    252.0909	   4764.9858
    252.0947	   8690.0000
    252.0985	  11981.1680
    252.1023	   9721.4629
    252.1061	   5632.3101
    252.1099	   1822.2563
    252.1137	    353.7462
    252.1172	      0.0000
    252.1210	      0.0000
    252.1248	      0.0000
    252.1286	      0.0000
    255.6008	      0.0000
    255.6046	      0.0000
    255.6085	      0.0000
    255.6124	      0.0000
    255.6163	    479.2961
    255.6201	    943.4697
    255.6240	   3186.3054
    255.6279	  11027.1426
    255.6318	  23650.9238
    255.6356	  37213.3008
    255.6395	  38897.0508
    255.6434	  25705.6035
    255.6473	  12804.1143
    255.6511	   3314.0710
