# ljz_20131022_MR_Chym1_ELUTE.mzML
#
# index: 2990
# id: controllerType=0 controllerNumber=1 scan=8720
# scanNumber: 8720
# massAnalyzerType: quadrupole
# scanEvent: 2
# msLevel: 2
# retentionTime: 2289.01
# filterString: FTMS + p NSI d Full ms2 415.52@hcd28.00 [100.00-1295.00]
# mzLow: 99.0036
# mzHigh: 1308.22
# basePeakMZ: 110.072
# basePeakIntensity: 60994.6
# totalIonCurrent: 441970
# precursorCount: 1
# precursor 0: 415.186 2.90724e+006
# binary (1068): 
     99.0036	      0.0000
     99.0045	      0.0000
     99.0055	      0.0000
     99.0064	      0.0000
    101.0638	      0.0000
    101.0648	      0.0000
    101.0657	      0.0000
    101.0667	      0.0000
    101.0677	    553.6959
    101.0686	   1409.7714
    101.0696	   3677.2798
    101.0706	   6571.9585
    101.0715	   8224.7598
    101.0725	   5964.4414
    101.0735	   3204.8013
    101.0744	   1082.7670
    101.0755	      0.0000
    101.0765	      0.0000
    101.0775	      0.0000
    101.0784	      0.0000
    110.0618	      0.0000
    110.0629	      0.0000
    110.0640	      0.0000
    110.0651	      0.0000
    110.0662	   1307.9664
    110.0673	   2301.3276
    110.0684	   6855.8921
    110.0695	  22001.6445
    110.0706	  41540.0586
    110.0717	  60262.9180
    110.0727	  53704.9922
    110.0738	  32541.8418
    110.0749	  12915.1943
    110.0760	   2432.3684
    110.0771	    528.9059
    110.0780	      0.0000
    110.0791	      0.0000
    110.0802	      0.0000
    110.0813	      0.0000
    110.0824	      0.0000
    110.0834	      0.0000
    110.0845	      0.0000
    110.0856	      0.0000
    111.0684	      0.0000
    111.0695	      0.0000
    111.0706	      0.0000
    111.0717	      0.0000
    111.0728	    873.3992
    111.0739	   1858.1509
    111.0750	   2383.7556
    111.0761	   2054.5515
    111.0772	   1162.9091
    111.0783	      0.0000
    111.0794	      0.0000
    111.0805	      0.0000
    111.0816	      0.0000
    114.4513	      0.0000
    114.4525	      0.0000
    114.4536	      0.0000
    114.4548	      0.0000
    114.4560	   1051.6467
    114.4571	   1713.2356
    114.4583	   1922.8630
    114.4594	   1527.4895
    114.4606	    801.4808
    114.4615	      0.0000
    114.4627	      0.0000
    114.4639	      0.0000
    114.4650	      0.0000
    120.0715	      0.0000
    120.0727	      0.0000
    120.0740	      0.0000
    120.0752	      0.0000
    120.0765	    777.5189
    120.0777	   4043.2825
    120.0790	   9730.8994
    120.0802	  15925.0615
    120.0815	  16998.7949
    120.0827	  11287.9531
    120.0840	   5564.8389
    120.0852	   1629.8582
    120.0865	   1032.0601
    120.0879	      0.0000
    120.0892	      0.0000
    120.0904	      0.0000
    120.0917	      0.0000
    129.0914	      0.0000
    129.0928	      0.0000
    129.0942	      0.0000
    129.0956	      0.0000
    129.0970	    681.6954
    129.0984	   3002.0881
    129.0998	   9605.4980
    129.1012	  17066.7949
    129.1026	  23351.1660
    129.1040	  19448.2109
    129.1054	  11454.5488
    129.1067	   4119.7871
    129.1081	    497.3887
    129.1094	      0.0000
    129.1108	      0.0000
    129.1122	      0.0000
    129.1136	      0.0000
    130.0398	      0.0000
    130.0412	      0.0000
    130.0426	      0.0000
    130.0440	      0.0000
    130.0454	    911.2223
    130.0468	   2321.6711
    130.0482	   5428.3833
    130.0496	   8214.6602
    130.0510	   7675.7295
    130.0524	   4752.7021
    130.0538	   1761.1394
    130.0552	    562.7185
    130.0566	      0.0000
    130.0580	      0.0000
    130.0594	      0.0000
    130.0609	      0.0000
    131.0741	      0.0000
    131.0755	      0.0000
    131.0770	      0.0000
    131.0784	      0.0000
    131.0798	    798.1003
    131.0812	   1622.2551
    131.0827	   1978.1431
    131.0841	   1599.4836
    131.0855	    798.6580
    131.0869	      0.0000
    131.0883	      0.0000
    131.0898	      0.0000
    131.0912	      0.0000
    132.0906	      0.0000
    132.0921	      0.0000
    132.0935	      0.0000
    132.0949	      0.0000
    132.0964	    648.9898
    132.0978	   3250.0112
    132.0993	   7127.3125
    132.1007	  11535.9766
    132.1021	  13949.2324
    132.1036	  10494.8867
    132.1050	   6041.0024
    132.1065	   1377.7850
    132.1079	      0.0000
    132.1093	    681.6618
    132.1108	   3521.2722
    132.1122	   3704.1506
    132.1137	   2701.0183
    132.1151	   1312.3059
    132.1165	      0.0000
    132.1180	      0.0000
    132.1194	      0.0000
    132.1208	      0.0000
    133.0345	      0.0000
    133.0360	      0.0000
    133.0374	      0.0000
    133.0389	      0.0000
    133.0403	   1250.7471
    133.0418	   2043.8862
    133.0433	   2211.5735
    133.0447	   1607.2972
    133.0462	    668.7969
    133.0476	      0.0000
    133.0491	      0.0000
    133.0505	      0.0000
    133.0520	      0.0000
    133.0534	      0.0000
    133.0549	      0.0000
    133.0564	      0.0000
    133.0578	    731.0511
    133.0593	   1539.2878
    133.0607	   1954.5903
    133.0622	   1598.5173
    133.0636	    745.7452
    133.0651	      0.0000
    133.0665	      0.0000
    133.0680	      0.0000
    133.0694	      0.0000
    136.0662	      0.0000
    136.0677	      0.0000
    136.0692	      0.0000
    136.0707	      0.0000
    136.0722	    733.4725
    136.0737	   1894.5780
    136.0752	   2981.9739
    136.0767	   3277.5266
    136.0782	   2614.3215
    136.0797	   1487.1479
    136.0812	    575.5275
    136.0827	      0.0000
    136.0842	      0.0000
    136.0857	      0.0000
    136.0872	      0.0000
    143.1075	      0.0000
    143.1091	      0.0000
    143.1108	      0.0000
    143.1124	      0.0000
    143.1140	   1410.4860
    143.1156	   2626.8079
    143.1172	   3462.2390
    143.1189	   3304.5967
    143.1205	   2247.7205
    143.1221	   1011.4735
    143.1237	      0.0000
    143.1254	      0.0000
    143.1270	      0.0000
    143.1286	      0.0000
    145.0514	      0.0000
    145.0530	      0.0000
    145.0547	      0.0000
    145.0563	      0.0000
    145.0580	   1165.9052
    145.0596	   2289.0247
    145.0613	   2825.0198
    145.0630	   2372.3015
    145.0646	   1322.7295
    145.0664	      0.0000
    145.0681	      0.0000
    145.0697	      0.0000
    145.0714	      0.0000
    145.0847	      0.0000
    145.0863	      0.0000
    145.0880	      0.0000
    145.0896	      0.0000
    145.0913	    963.4512
    145.0929	   3153.8967
    145.0946	   8338.0361
    145.0963	  13953.2705
    145.0979	  16707.1016
    145.0996	  11992.1035
    145.1012	   6415.6914
    145.1029	   1503.5442
    145.1044	      0.0000
    145.1060	      0.0000
    145.1077	      0.0000
    145.1094	      0.0000
    147.0655	      0.0000
    147.0672	      0.0000
    147.0689	      0.0000
    147.0706	      0.0000
    147.0723	    997.0195
    147.0740	   2456.0813
    147.0757	   3908.5103
    147.0774	   4203.4766
    147.0791	   3094.3992
    147.0808	   1449.0422
    147.0825	      0.0000
    147.0842	      0.0000
    147.0858	      0.0000
    147.0875	      0.0000
    155.0704	      0.0000
    155.0722	      0.0000
    155.0740	      0.0000
    155.0759	      0.0000
    155.0777	    888.5873
    155.0795	   2029.3701
    155.0814	   2940.9189
    155.0832	   2957.9905
    155.0850	   2031.3394
    155.0869	    887.6993
    155.0887	      0.0000
    155.0905	      0.0000
    155.0924	      0.0000
    155.0942	      0.0000
    155.1070	      0.0000
    155.1088	      0.0000
    155.1107	      0.0000
    155.1125	      0.0000
    155.1143	   1485.2839
    155.1162	   2401.0295
    155.1180	   2729.3635
    155.1198	   2166.8440
    155.1217	   1078.5104
    155.1236	      0.0000
    155.1254	      0.0000
    155.1272	      0.0000
    155.1291	      0.0000
    157.1219	      0.0000
    157.1238	      0.0000
    157.1256	      0.0000
    157.1275	      0.0000
    157.1294	   1465.8163
    157.1312	   2642.8865
    157.1331	   3204.6277
    157.1350	   2678.3193
    157.1369	   1454.2192
    157.1387	      0.0000
    157.1406	      0.0000
    157.1425	      0.0000
    157.1443	      0.0000
    166.0366	      0.0000
    166.0386	      0.0000
    166.0407	      0.0000
    166.0427	      0.0000
    166.0447	   1115.8802
    166.0467	   2410.6460
    166.0488	   3395.8127
    166.0508	   3294.9417
    166.0528	   2129.9907
    166.0549	    750.2802
    166.0569	      0.0000
    166.0589	      0.0000
    166.0609	      0.0000
    166.0629	      0.0000
    171.0991	      0.0000
    171.1013	      0.0000
    171.1034	      0.0000
    171.1055	      0.0000
    171.1076	   1060.3914
    171.1097	   2267.9753
    171.1119	   3258.9421
    171.1140	   3391.7122
    171.1161	   2606.5569
    171.1182	   1427.6011
    171.1204	      0.0000
    171.1226	      0.0000
    171.1247	      0.0000
    171.1268	      0.0000
    173.0756	      0.0000
    173.0778	      0.0000
    173.0799	      0.0000
    173.0821	      0.0000
    173.0842	    537.0894
    173.0864	   1739.1064
    173.0886	   5492.4102
    173.0907	   8439.6807
    173.0929	   8899.3867
    173.0950	   5586.9595
    173.0972	   2326.0569
    173.0994	      0.0000
    173.1015	      0.0000
    173.1037	      0.0000
    173.1058	      0.0000
    173.1080	      0.0000
    173.1166	      0.0000
    173.1188	      0.0000
    173.1210	      0.0000
    173.1231	      0.0000
    173.1253	   1499.5984
    173.1274	   2358.5244
    173.1296	   2499.8245
    173.1318	   1838.9214
    173.1339	    895.4764
    173.1361	      0.0000
    173.1382	      0.0000
    173.1404	      0.0000
    173.1426	      0.0000
    175.0732	      0.0000
    175.0754	      0.0000
    175.0776	      0.0000
    175.0798	      0.0000
    175.0820	   1206.1886
    175.0842	   2149.4768
    175.0864	   2469.1770
    175.0886	   1903.8663
    175.0908	    905.5035
    175.0940	      0.0000
    175.0962	      0.0000
    175.0984	      0.0000
    175.1006	      0.0000
    183.0587	      0.0000
    183.0610	      0.0000
    183.0634	      0.0000
    183.0657	      0.0000
    183.0681	    800.6232
    183.0704	   2227.8452
    183.0728	   6384.3413
    183.0751	  11539.9297
    183.0775	  15937.0186
    183.0798	  13279.8281
    183.0822	   7687.4341
    183.0845	   2358.6943
    183.0869	      0.0000
    183.0882	      0.0000
    183.0906	      0.0000
    183.0929	      0.0000
    183.0953	      0.0000
    185.1140	      0.0000
    185.1164	      0.0000
    185.1188	      0.0000
    185.1212	      0.0000
    185.1236	    938.7269
    185.1260	   2266.2263
    185.1284	   3446.6089
    185.1307	   3495.3997
    185.1331	   2408.8875
    185.1355	   1052.6052
    185.1379	      0.0000
    185.1403	      0.0000
    185.1427	      0.0000
    185.1451	      0.0000
    197.0870	      0.0000
    197.0896	      0.0000
    197.0923	      0.0000
    197.0949	      0.0000
    197.0975	   1187.8610
    197.1001	   2410.7544
    197.1028	   3302.7725
    197.1054	   3202.1643
    197.1080	   2180.4854
    197.1106	    964.1688
    197.1133	      0.0000
    197.1159	      0.0000
    197.1185	      0.0000
    197.1212	      0.0000
    200.0811	      0.0000
    200.0838	      0.0000
    200.0865	      0.0000
    200.0892	      0.0000
    200.0919	     93.4450
    200.0946	   1837.2528
    200.0972	   6641.7759
    200.0999	  12406.8398
    200.1026	  17737.9277
    200.1053	  15877.8896
    200.1080	   9781.3613
    200.1107	   4161.2632
    200.1134	    630.4830
    200.1160	      0.0000
    200.1187	      0.0000
    200.1214	      0.0000
    200.1241	      0.0000
    200.1268	      0.0000
    200.1294	      0.0000
    200.1321	    563.3887
    200.1348	   1665.6794
    200.1375	   2962.6729
    200.1402	   3591.4634
    200.1429	   3034.4038
    200.1456	   1729.4178
    200.1482	    599.1269
    200.1509	      0.0000
    200.1536	      0.0000
    200.1563	      0.0000
    200.1590	      0.0000
    201.1024	      0.0000
    201.1051	      0.0000
    201.1078	      0.0000
    201.1105	      0.0000
    201.1133	    562.6244
    201.1160	   1472.4215
    201.1187	   4327.9717
    201.1214	   7390.4683
    201.1241	   8725.2568
    201.1268	   6084.4058
    201.1295	   3053.5652
    201.1322	   1108.7274
    201.1350	      0.0000
    201.1377	      0.0000
    201.1404	      0.0000
    201.1431	      0.0000
    203.1221	      0.0000
    203.1248	      0.0000
    203.1276	      0.0000
    203.1303	      0.0000
    203.1331	    860.3566
    203.1358	   2026.3396
    203.1386	   2945.6184
    203.1413	   2923.3499
    203.1441	   1989.3790
    203.1468	    857.7413
    203.1495	      0.0000
    203.1523	      0.0000
    203.1550	      0.0000
    203.1578	      0.0000
    207.0697	      0.0000
    207.0725	      0.0000
    207.0753	      0.0000
    207.0782	      0.0000
    207.0810	    713.3126
    207.0838	   1684.3602
    207.0867	   2575.0811
    207.0895	   2774.8389
    207.0923	   2116.0974
    207.0951	   1065.1776
    207.0988	      0.0000
    207.1016	      0.0000
    207.1044	      0.0000
    207.1072	      0.0000
    225.0727	      0.0000
    225.0759	      0.0000
    225.0791	      0.0000
    225.0823	      0.0000
    225.0855	    451.6262
    225.0887	   2371.2390
    225.0919	   7730.3491
    225.0951	  14580.1045
    225.0983	  21181.2656
    225.1015	  19231.2168
    225.1047	  11881.1963
    225.1079	   5012.0630
    225.1112	    800.8450
    225.1137	      0.0000
    225.1169	      0.0000
    225.1201	      0.0000
    225.1233	      0.0000
    228.1132	      0.0000
    228.1164	      0.0000
    228.1197	      0.0000
    228.1230	      0.0000
    228.1263	    711.6918
    228.1295	   1590.2957
    228.1328	   2261.1851
    228.1361	   2162.4568
    228.1393	   1306.6295
    228.1426	      0.0000
    228.1459	      0.0000
    228.1491	      0.0000
    228.1524	      0.0000
    228.1557	      0.0000
    228.1589	      0.0000
    228.1622	    720.4012
    228.1655	   1928.1075
    228.1687	   3276.2344
    228.1720	   3737.8411
    228.1753	   2956.6985
    228.1786	   1566.5723
    228.1818	    556.0367
    228.1851	      0.0000
    228.1884	      0.0000
    228.1917	      0.0000
    228.1949	      0.0000
    246.1204	      0.0000
    246.1240	      0.0000
    246.1277	      0.0000
    246.1314	      0.0000
    246.1350	    760.5496
    246.1387	   1984.7867
    246.1424	   3227.3306
    246.1460	   3588.1965
    246.1497	   2780.2419
    246.1533	   1440.0430
    246.1570	      0.0000
    246.1607	      0.0000
    246.1643	      0.0000
    246.1680	      0.0000
    248.0879	      0.0000
    248.0916	      0.0000
    248.0953	      0.0000
    248.0990	      0.0000
    248.1027	    469.5388
    248.1064	   1575.8363
    248.1101	   2974.5144
    248.1138	   3726.6333
    248.1175	   3239.5991
    248.1212	   1901.0784
    248.1249	    664.6446
    248.1287	      0.0000
    248.1324	      0.0000
    248.1361	      0.0000
    248.1398	      0.0000
    263.1154	      0.0000
    263.1195	      0.0000
    263.1235	      0.0000
    263.1276	      0.0000
    263.1316	   1152.7993
    263.1357	   2535.0132
    263.1397	   3825.4329
    263.1438	   4129.9922
    263.1478	   3171.3494
    263.1519	   1651.5674
    263.1559	    619.2286
    263.1599	      0.0000
    263.1640	      0.0000
    263.1680	      0.0000
    263.1721	      0.0000
    266.0999	      0.0000
    266.1040	      0.0000
    266.1081	      0.0000
    266.1122	      0.0000
    266.1164	    639.1725
    266.1205	   1643.8766
    266.1246	   2448.4097
    266.1287	   2420.3135
    266.1328	   1573.8533
    266.1369	    608.3875
    266.1410	      0.0000
    266.1452	      0.0000
    266.1493	      0.0000
    266.1534	      0.0000
    271.1104	      0.0000
    271.1146	      0.0000
    271.1189	      0.0000
    271.1231	      0.0000
    271.1273	    961.3990
    271.1316	   2606.1401
    271.1358	   6110.2993
    271.1400	   8179.4111
    271.1443	   6524.0796
    271.1485	   2826.1294
    271.1528	   1106.0195
    271.1571	      0.0000
    271.1613	      0.0000
    271.1656	      0.0000
    271.1698	      0.0000
    278.1200	      0.0000
    278.1244	      0.0000
    278.1288	      0.0000
    278.1332	      0.0000
    278.1376	    659.4682
    278.1420	   1676.2876
    278.1464	   3305.1770
    278.1508	   6856.2383
    278.1552	   7611.2773
    278.1596	   5153.2891
    278.1640	   2467.0996
    278.1684	   1061.8000
    278.1728	      0.0000
    278.1772	      0.0000
    278.1816	      0.0000
    278.1860	      0.0000
    284.1694	      0.0000
    284.1740	      0.0000
    284.1785	      0.0000
    284.1830	      0.0000
    284.1876	   1010.7805
    284.1921	   1621.0247
    284.1967	   1964.9073
    284.2012	   1831.4890
    284.2058	   1249.3540
    284.2103	      0.0000
    284.2148	      0.0000
    284.2194	      0.0000
    284.2239	      0.0000
    293.2653	      0.0000
    293.2700	      0.0000
    293.2748	      0.0000
    293.2795	      0.0000
    293.2843	    968.9838
    293.2891	   1544.1846
    293.2938	   1761.5668
    293.2986	   1504.9037
    293.3034	    928.8722
    293.3083	      0.0000
    293.3131	      0.0000
    293.3179	      0.0000
    293.3226	      0.0000
    325.1245	      0.0000
    325.1301	      0.0000
    325.1356	      0.0000
    325.1412	      0.0000
    325.1467	    653.8766
    325.1523	   1623.4769
    325.1579	   2543.4946
    325.1634	   2812.0005
    325.1690	   2224.5764
    325.1745	   1188.2311
    325.1801	      0.0000
    325.1856	      0.0000
    325.1912	      0.0000
    325.1968	      0.0000
    335.0669	      0.0000
    335.0728	      0.0000
    335.0786	      0.0000
    335.0844	      0.0000
    335.0902	    778.2833
    335.0960	   1999.2562
    335.1019	   2956.7905
    335.1077	   2879.1191
    335.1135	   1873.1819
    335.1193	    764.1141
    335.1253	      0.0000
    335.1311	      0.0000
    335.1369	      0.0000
    335.1427	      0.0000
    348.6310	      0.0000
    348.6371	      0.0000
    348.6433	      0.0000
    348.6495	      0.0000
    348.6557	   1200.3867
    348.6618	   2078.8040
    348.6680	   2628.8933
    348.6742	   2490.6404
    348.6804	   1733.7214
    348.6865	    807.8206
    348.6927	      0.0000
    348.6989	      0.0000
    348.7051	      0.0000
    348.7112	      0.0000
    353.1132	      0.0000
    353.1195	      0.0000
    353.1258	      0.0000
    353.1321	      0.0000
    353.1384	    663.1547
    353.1447	   1874.3571
    353.1510	   3175.9331
    353.1573	   3524.9290
    353.1636	   2593.4592
    353.1698	   1169.2402
    353.1761	      0.0000
    353.1824	    813.2300
    353.1887	   1732.4464
    353.1950	   2251.2292
    353.2013	   1985.4264
    353.2076	   1239.9011
    353.2139	      0.0000
    353.2202	      0.0000
    353.2265	      0.0000
    353.2328	      0.0000
    358.1127	      0.0000
    358.1192	      0.0000
    358.1256	      0.0000
    358.1320	      0.0000
    358.1384	   1047.3409
    358.1449	   1723.9645
    358.1513	   1979.4015
    358.1577	   1623.7053
    358.1642	    882.8727
    358.1707	      0.0000
    358.1772	      0.0000
    358.1836	      0.0000
    358.1900	      0.0000
    377.1815	      0.0000
    377.1885	      0.0000
    377.1954	      0.0000
    377.2024	      0.0000
    377.2093	   1222.4053
    377.2163	   2207.7000
    377.2232	   2471.9990
    377.2302	   1816.1489
    377.2371	    800.4100
    377.2441	      0.0000
    377.2510	      0.0000
    377.2580	      0.0000
    377.2649	      0.0000
    393.1745	      0.0000
    393.1819	      0.0000
    393.1893	      0.0000
    393.1967	      0.0000
    393.2041	    924.0667
    393.2115	   1736.5602
    393.2189	   2155.0715
    393.2263	   1904.8972
    393.2337	   1163.3773
    393.2412	      0.0000
    393.2486	      0.0000
    393.2560	      0.0000
    393.2634	      0.0000
    414.2077	      0.0000
    414.2156	      0.0000
    414.2236	      0.0000
    414.2316	      0.0000
    414.2396	    483.2375
    414.2476	   1621.3020
    414.2556	   4976.1729
    414.2636	   8001.6929
    414.2716	   8894.9951
    414.2796	   6050.5049
    414.2876	   3042.3774
    414.2956	   1226.3043
