# ljz_20131022_MR_Chym1_ELUTE.mzML
#
# index: 4584
# id: controllerType=0 controllerNumber=1 scan=10799
# scanNumber: 10799
# massAnalyzerType: quadrupole
# scanEvent: 2
# msLevel: 2
# retentionTime: 2663.63
# filterString: FTMS + p NSI d Full ms2 694.33@hcd28.00 [100.00-1435.00]
# mzLow: 99.0036
# mzHigh: 1449.68
# basePeakMZ: 110.072
# basePeakIntensity: 206788
# totalIonCurrent: 1.38377e+006
# precursorCount: 1
# precursor 0: 694.328 1.32986e+006
# binary (2399): 
     99.0036	      0.0000
     99.0045	      0.0000
     99.0055	      0.0000
     99.0064	      0.0000
    101.0002	      0.0000
    101.0012	      0.0000
    101.0022	      0.0000
    101.0031	      0.0000
    101.0041	    465.0591
    101.0050	   1159.1493
    101.0060	   1746.4386
    101.0070	   1791.7871
    101.0079	   1265.4493
    101.0089	    562.5345
    101.0100	      0.0000
    101.0109	      0.0000
    101.0119	      0.0000
    101.0129	      0.0000
    110.0596	      0.0000
    110.0607	      0.0000
    110.0617	      0.0000
    110.0628	      0.0000
    110.0639	    889.9540
    110.0650	   2956.8433
    110.0661	   5556.8516
    110.0672	   8894.7891
    110.0683	  22928.2578
    110.0694	  70501.0234
    110.0705	 135859.5156
    110.0716	 202107.4063
    110.0727	 190018.1250
    110.0738	 118503.5625
    110.0749	  52195.0664
    110.0760	  12008.7344
    110.0771	   2305.2100
    110.0780	   2855.4280
    110.0791	   2104.6995
    110.0802	    751.7646
    110.0812	      0.0000
    110.0823	      0.0000
    110.0834	      0.0000
    110.0845	      0.0000
    111.0617	      0.0000
    111.0628	      0.0000
    111.0639	      0.0000
    111.0650	      0.0000
    111.0661	    461.2884
    111.0672	   1102.3806
    111.0683	   1515.1947
    111.0695	   1291.0642
    111.0706	    758.0594
    111.0717	   1047.7595
    111.0728	   3073.0991
    111.0739	   5904.3296
    111.0750	   8445.5059
    111.0761	   7153.7153
    111.0772	   4099.7939
    111.0783	   1240.1405
    111.0794	    652.2837
    111.0805	      0.0000
    111.0817	      0.0000
    111.0828	      0.0000
    111.0839	      0.0000
    112.8470	      0.0000
    112.8482	      0.0000
    112.8493	      0.0000
    112.8504	      0.0000
    112.8516	    538.7514
    112.8527	    948.8237
    112.8539	   1134.6177
    112.8550	    996.1297
    112.8561	    638.3491
    112.8572	      0.0000
    112.8583	      0.0000
    112.8595	      0.0000
    112.8606	      0.0000
    120.0716	      0.0000
    120.0729	      0.0000
    120.0741	      0.0000
    120.0754	      0.0000
    120.0766	    395.7983
    120.0779	   1165.2081
    120.0791	   3218.6018
    120.0804	   5294.2749
    120.0816	   5881.1719
    120.0829	   3956.4404
    120.0841	   1943.9507
    120.0854	    738.2710
    120.0866	      0.0000
    120.0879	      0.0000
    120.0891	      0.0000
    120.0903	      0.0000
    122.0732	      0.0000
    122.0744	      0.0000
    122.0757	      0.0000
    122.0770	      0.0000
    122.0783	    586.0099
    122.0796	   1094.6936
    122.0808	   1321.6060
    122.0821	   1104.1669
    122.0834	    612.2975
    122.0848	      0.0000
    122.0860	      0.0000
    122.0873	      0.0000
    122.0886	      0.0000
    126.0440	      0.0000
    126.0453	      0.0000
    126.0467	      0.0000
    126.0480	      0.0000
    126.0494	    376.8422
    126.0507	   1343.1462
    126.0520	   4762.7363
    126.0534	  10468.1699
    126.0547	  16676.9160
    126.0561	  17885.1035
    126.0574	  11950.6641
    126.0588	   6026.4927
    126.0601	   1450.3961
    126.0614	     41.4290
    126.0627	      0.0000
    126.0640	      0.0000
    126.0654	      0.0000
    126.0667	      0.0000
    126.1580	      0.0000
    126.1594	      0.0000
    126.1607	      0.0000
    126.1621	      0.0000
    126.1634	      0.0000
    126.1648	      0.0000
    126.1661	      0.0000
    126.1675	      0.0000
    126.1688	      0.0000
    126.1701	      0.0000
    126.1715	      0.0000
    126.1728	      0.0000
    126.1742	      0.0000
    126.1755	      0.0000
    126.1769	      0.0000
    126.1782	      0.0000
    126.1795	      0.0000
    126.1809	      0.0000
    126.1822	      0.0000
    127.0308	      0.0000
    127.0322	      0.0000
    127.0335	      0.0000
    127.0349	      0.0000
    127.0363	    840.5130
    127.0376	   1808.1106
    127.0390	   2483.0476
    127.0403	   2386.4429
    127.0417	   1621.5470
    127.0431	    745.5109
    127.0444	      0.0000
    127.0458	      0.0000
    127.0471	      0.0000
    127.0485	      0.0000
    129.0579	      0.0000
    129.0593	      0.0000
    129.0607	      0.0000
    129.0621	      0.0000
    129.0635	    733.7308
    129.0649	   1155.6281
    129.0663	   1310.0480
    129.0676	   1106.2695
    129.0690	    675.4244
    129.0704	      0.0000
    129.0718	      0.0000
    129.0732	      0.0000
    129.0746	      0.0000
    129.0927	      0.0000
    129.0941	      0.0000
    129.0955	      0.0000
    129.0969	      0.0000
    129.0982	    456.1230
    129.0996	   1233.3876
    129.1010	   2068.2239
    129.1024	   2431.8464
    129.1038	   2052.6858
    129.1052	   1200.7446
    129.1066	    476.7288
    129.1083	      0.0000
    129.1097	      0.0000
    129.1111	      0.0000
    129.1125	      0.0000
    132.0910	      0.0000
    132.0924	      0.0000
    132.0939	      0.0000
    132.0953	      0.0000
    132.0967	    583.7879
    132.0982	   1840.3204
    132.0996	   5341.1650
    132.1011	   9511.8770
    132.1025	  13008.4277
    132.1039	  10704.8643
    132.1054	   6234.3169
    132.1068	   2054.0874
    132.1083	    161.6151
    132.1093	      0.0000
    132.1107	      0.0000
    132.1122	      0.0000
    132.1136	      0.0000
    136.0767	      0.0000
    136.0782	      0.0000
    136.0797	      0.0000
    136.0812	      0.0000
    136.0827	    441.8773
    136.0842	   1249.0170
    136.0857	   2344.3030
    136.0872	   2987.4087
    136.0887	   2695.8240
    136.0902	   1695.0736
    136.0917	    690.4548
    136.0932	      0.0000
    136.0947	      0.0000
    136.0962	      0.0000
    136.0977	      0.0000
    138.0431	      0.0000
    138.0446	      0.0000
    138.0462	      0.0000
    138.0477	      0.0000
    138.0492	    736.9966
    138.0508	   2327.5176
    138.0523	   6088.0508
    138.0538	  10373.8281
    138.0554	  12599.0166
    138.0569	   9039.7510
    138.0585	   4998.8965
    138.0600	   1323.4819
    138.0615	    695.3781
    138.0631	   2482.3574
    138.0646	   5088.2495
    138.0662	   7219.6187
    138.0677	   6627.2871
    138.0692	   3924.3188
    138.0708	   1449.0496
    138.0723	    585.4576
    138.0738	      0.0000
    138.0754	      0.0000
    138.0769	      0.0000
    138.0785	      0.0000
    138.9366	      0.0000
    138.9382	      0.0000
    138.9397	      0.0000
    138.9413	      0.0000
    138.9428	      0.0000
    138.9444	      0.0000
    138.9459	      0.0000
    138.9475	      0.0000
    138.9490	      0.0000
    138.9506	      0.0000
    138.9521	      0.0000
    138.9537	      0.0000
    138.9552	      0.0000
    138.9568	      0.0000
    138.9584	      0.0000
    138.9599	      0.0000
    138.9615	      0.0000
    138.9630	      0.0000
    138.9646	      0.0000
    145.0397	      0.0000
    145.0414	      0.0000
    145.0431	      0.0000
    145.0447	      0.0000
    145.0464	    645.7288
    145.0480	   1429.4146
    145.0497	   1973.6693
    145.0513	   1831.3628
    145.0530	   1107.4379
    145.0547	    447.3754
    145.0563	    445.4081
    145.0580	   1083.0499
    145.0596	   1776.8345
    145.0613	   1944.0585
    145.0629	   1486.7106
    145.0646	    771.2060
    145.0663	      0.0000
    145.0679	      0.0000
    145.0696	      0.0000
    145.0712	      0.0000
    152.0703	      0.0000
    152.0721	      0.0000
    152.0739	      0.0000
    152.0757	      0.0000
    152.0775	    411.4048
    152.0792	   1018.0811
    152.0810	   1493.9459
    152.0828	   1519.9247
    152.0846	   1092.2062
    152.0864	    520.8234
    152.0881	      0.0000
    152.0899	      0.0000
    152.0917	      0.0000
    152.0935	      0.0000
    155.0832	      0.0000
    155.0850	      0.0000
    155.0868	      0.0000
    155.0887	      0.0000
    155.0905	    569.5056
    155.0923	   1010.9875
    155.0942	   1209.9471
    155.0960	   1051.5756
    155.0978	    644.6206
    155.0997	      0.0000
    155.1016	      0.0000
    155.1034	      0.0000
    155.1052	      0.0000
    156.4812	      0.0000
    156.4831	      0.0000
    156.4849	      0.0000
    156.4868	      0.0000
    156.4886	    615.8378
    156.4905	   1115.4130
    156.4924	   1338.5074
    156.4942	   1109.0066
    156.4961	    591.4398
    156.4979	      0.0000
    156.4997	      0.0000
    156.5016	      0.0000
    156.5034	      0.0000
    159.0981	      0.0000
    159.1000	      0.0000
    159.1019	      0.0000
    159.1038	      0.0000
    159.1057	     97.7611
    159.1076	   1713.6628
    159.1095	   4970.8452
    159.1114	   8516.5215
    159.1133	  10368.5088
    159.1152	   7574.1167
    159.1171	   4155.0596
    159.1191	   1168.8350
    159.1210	    221.9100
    159.1229	      0.0000
    159.1248	      0.0000
    159.1267	      0.0000
    159.1286	      0.0000
    161.5395	      0.0000
    161.5415	      0.0000
    161.5434	      0.0000
    161.5454	      0.0000
    161.5473	    511.7874
    161.5493	    995.1583
    161.5512	   1226.5480
    161.5532	   1028.6707
    161.5551	    552.6149
    161.5571	      0.0000
    161.5591	      0.0000
    161.5610	      0.0000
    161.5630	      0.0000
    164.0695	      0.0000
    164.0715	      0.0000
    164.0735	      0.0000
    164.0755	      0.0000
    164.0775	    835.0831
    164.0795	   1355.9556
    164.0815	   1621.9592
    164.0835	   1417.8132
    164.0855	    854.3727
    164.0875	      0.0000
    164.0894	      0.0000
    164.0914	      0.0000
    164.0934	      0.0000
    164.1054	      0.0000
    164.1074	      0.0000
    164.1094	      0.0000
    164.1114	      0.0000
    164.1134	    518.3837
    164.1154	   1311.9172
    164.1174	   2015.8318
    164.1194	   2104.8057
    164.1213	   1484.4369
    164.1233	    629.6953
    164.1253	      0.0000
    164.1273	      0.0000
    164.1293	      0.0000
    164.1313	      0.0000
    168.0516	      0.0000
    168.0537	      0.0000
    168.0558	      0.0000
    168.0578	      0.0000
    168.0599	    925.5213
    168.0620	   2994.1108
    168.0640	   5032.7393
    168.0661	   6105.9980
    168.0682	   4425.6221
    168.0702	   2376.8237
    168.0723	    728.5930
    168.0744	      0.0000
    168.0765	      0.0000
    168.0785	      0.0000
    168.0806	      0.0000
    173.1145	      0.0000
    173.1166	      0.0000
    173.1188	      0.0000
    173.1209	      0.0000
    173.1231	    722.5090
    173.1253	   1546.9470
    173.1274	   2331.5728
    173.1296	   2559.5371
    173.1317	   2036.9484
    173.1339	   1111.8401
    173.1361	    360.3406
    173.1382	      0.0000
    173.1404	      0.0000
    173.1425	      0.0000
    173.1447	      0.0000
    175.0600	      0.0000
    175.0622	      0.0000
    175.0644	      0.0000
    175.0666	      0.0000
    175.0688	    669.3317
    175.0710	   1278.3549
    175.0732	   1524.4968
    175.0754	   1240.3925
    175.0776	    662.7597
    175.0796	      0.0000
    175.0818	      0.0000
    175.0840	      0.0000
    175.0862	      0.0000
    181.0906	      0.0000
    181.0929	      0.0000
    181.0952	      0.0000
    181.0976	      0.0000
    181.0999	    464.2594
    181.1022	   1767.0187
    181.1045	   5869.0820
    181.1068	  10228.5732
    181.1091	  13119.8564
    181.1114	   9808.4834
    181.1137	   5421.7808
    181.1161	   1480.7469
    181.1184	    259.1008
    181.1209	      0.0000
    181.1232	      0.0000
    181.1255	      0.0000
    181.1278	      0.0000
    182.1145	      0.0000
    182.1169	      0.0000
    182.1192	      0.0000
    182.1215	      0.0000
    182.1239	    683.6147
    182.1262	   1450.8895
    182.1285	   2008.9833
    182.1309	   1936.1421
    182.1332	   1276.2111
    182.1355	    490.3564
    182.1379	      0.0000
    182.1402	      0.0000
    182.1425	      0.0000
    182.1448	      0.0000
    183.0952	      0.0000
    183.0976	      0.0000
    183.0999	      0.0000
    183.1023	      0.0000
    183.1046	    409.1807
    183.1070	   1298.2128
    183.1093	   3868.3892
    183.1117	   6240.1440
    183.1140	   6984.5234
    183.1164	   4849.3018
    183.1187	   2514.3271
    183.1211	    933.3517
    183.1234	      0.0000
    183.1258	      0.0000
    183.1281	      0.0000
    183.1305	      0.0000
    186.0589	      0.0000
    186.0613	      0.0000
    186.0637	      0.0000
    186.0661	      0.0000
    186.0685	    323.8654
    186.0709	   1055.0870
    186.0733	   2039.1635
    186.0757	   2537.6165
    186.0781	   2115.7300
    186.0805	   1107.2012
    186.0829	    281.1721
    186.0853	      0.0000
    186.0877	      0.0000
    186.0901	      0.0000
    186.0926	      0.0000
    187.0886	      0.0000
    187.0910	      0.0000
    187.0935	      0.0000
    187.0959	      0.0000
    187.0983	    530.4125
    187.1008	   1345.7592
    187.1032	   3880.9207
    187.1056	   6643.3462
    187.1080	   8250.4063
    187.1105	   6219.6938
    187.1129	   3474.3909
    187.1153	    871.5363
    187.1178	      0.0000
    187.1202	      0.0000
    187.1227	      0.0000
    187.1251	      0.0000
    195.0997	      0.0000
    195.1023	      0.0000
    195.1049	      0.0000
    195.1074	      0.0000
    195.1100	    961.1774
    195.1126	   1530.4268
    195.1152	   1654.4384
    195.1178	   1258.1841
    195.1204	    648.6856
    195.1230	      0.0000
    195.1256	      0.0000
    195.1282	      0.0000
    195.1307	      0.0000
    200.1187	      0.0000
    200.1214	      0.0000
    200.1241	      0.0000
    200.1268	      0.0000
    200.1295	    416.3240
    200.1322	   2332.0908
    200.1348	   6399.6934
    200.1375	  10848.1152
    200.1402	  13276.6631
    200.1429	   9839.1191
    200.1456	   5544.1392
    200.1483	   1654.2266
    200.1510	    199.5195
    200.1542	      0.0000
    200.1569	      0.0000
    200.1596	      0.0000
    200.1623	      0.0000
    204.0650	      0.0000
    204.0677	      0.0000
    204.0705	      0.0000
    204.0733	      0.0000
    204.0760	    142.0114
    204.0788	   1076.6958
    204.0816	   4011.0044
    204.0843	   7634.1904
    204.0871	  10913.5127
    204.0899	   9353.6816
    204.0926	   5531.1167
    204.0954	   1927.9764
    204.0982	    274.4094
    204.1003	      0.0000
    204.1031	      0.0000
    204.1059	      0.0000
    204.1086	      0.0000
    210.0089	      0.0000
    210.0118	      0.0000
    210.0147	      0.0000
    210.0176	      0.0000
    210.0205	    576.2585
    210.0234	   1066.5591
    210.0263	   1304.1904
    210.0291	   1102.9532
    210.0320	    599.9667
    210.0350	      0.0000
    210.0379	      0.0000
    210.0408	      0.0000
    210.0436	      0.0000
    216.0815	      0.0000
    216.0845	      0.0000
    216.0875	      0.0000
    216.0905	      0.0000
    216.0935	    806.7176
    216.0965	   1430.8484
    216.0996	   1673.3147
    216.1026	   1367.1050
    216.1056	    764.6810
    216.1086	      0.0000
    216.1116	      0.0000
    216.1146	      0.0000
    216.1176	      0.0000
    219.1138	      0.0000
    219.1169	      0.0000
    219.1200	      0.0000
    219.1231	      0.0000
    219.1261	    521.5234
    219.1292	   2811.9348
    219.1323	   5171.3706
    219.1354	   6657.4668
    219.1385	   4811.1733
    219.1415	   2529.8989
    219.1446	    803.0076
    219.1477	      0.0000
    219.1507	      0.0000
    219.1538	      0.0000
    219.1569	      0.0000
    225.0751	      0.0000
    225.0783	      0.0000
    225.0815	      0.0000
    225.0847	      0.0000
    225.0879	    552.7925
    225.0911	   1579.9918
    225.0943	   4003.1968
    225.0975	   5849.9546
    225.1007	   5189.3945
    225.1039	   3041.2927
    225.1071	   1195.5840
    225.1103	    421.8871
    225.1136	      0.0000
    225.1168	      0.0000
    225.1200	      0.0000
    225.1232	      0.0000
    228.1131	      0.0000
    228.1164	      0.0000
    228.1197	      0.0000
    228.1230	      0.0000
    228.1262	    560.6921
    228.1295	   1322.1685
    228.1328	   1966.6963
    228.1360	   2026.1583
    228.1393	   1450.1378
    228.1426	    654.0501
    228.1458	      0.0000
    228.1491	      0.0000
    228.1524	      0.0000
    228.1556	      0.0000
    229.0704	      0.0000
    229.0737	      0.0000
    229.0770	      0.0000
    229.0803	      0.0000
    229.0836	    537.1486
    229.0868	   1149.2383
    229.0901	   1687.9388
    229.0934	   1816.3268
    229.0967	   1427.1809
    229.1000	    766.6209
    229.1040	      0.0000
    229.1073	      0.0000
    229.1106	      0.0000
    229.1139	      0.0000
    231.1437	      0.0000
    231.1471	      0.0000
    231.1504	      0.0000
    231.1537	      0.0000
    231.1571	    590.1153
    231.1604	   1301.1559
    231.1637	   3903.9653
    231.1671	   7390.9429
    231.1704	  10741.9111
    231.1737	   9802.5605
    231.1771	   5986.9165
    231.1804	   2403.7744
    231.1837	    380.2320
    231.1863	      0.0000
    231.1897	      0.0000
    231.1930	      0.0000
    231.1963	      0.0000
    235.0621	      0.0000
    235.0655	      0.0000
    235.0690	      0.0000
    235.0724	      0.0000
    235.0758	    964.7844
    235.0792	   1718.7375
    235.0826	   2085.9575
    235.0861	   1804.4718
    235.0895	   1097.2750
    235.0929	    404.5359
    235.0963	      0.0000
    235.0997	      0.0000
    235.1031	      0.0000
    235.1065	      0.0000
    242.1261	      0.0000
    242.1297	      0.0000
    242.1333	      0.0000
    242.1368	      0.0000
    242.1404	    436.5374
    242.1440	   1179.8137
    242.1476	   1946.6340
    242.1511	   2232.4341
    242.1547	   1840.6078
    242.1583	   1061.3175
    242.1619	    384.8305
    242.1658	      0.0000
    242.1693	      0.0000
    242.1729	      0.0000
    242.1765	      0.0000
    253.0578	      0.0000
    253.0616	      0.0000
    253.0654	      0.0000
    253.0693	      0.0000
    253.0731	    828.0619
    253.0769	   1580.2958
    253.0807	   5586.4746
    253.0845	  19522.9004
    253.0883	  39676.6406
    253.0922	  60918.1719
    253.0960	  59876.4180
    253.0998	  38328.3828
    253.1036	  18077.6406
    253.1074	   4943.5908
    253.1113	   1689.5782
    253.1151	   1686.5458
    253.1189	   1255.7748
    253.1227	   1099.6267
    253.1265	    112.0104
    253.1301	      0.0000
    253.1339	      0.0000
    253.1377	      0.0000
    253.1416	      0.0000
    254.0686	      0.0000
    254.0725	      0.0000
    254.0763	      0.0000
    254.0801	      0.0000
    254.0840	    572.3962
    254.0878	   1493.4869
    254.0917	   2570.5349
    254.0955	   3021.3335
    254.0994	   2470.4941
    254.1032	   1328.6182
    254.1070	    382.6933
    254.1110	      0.0000
    254.1148	      0.0000
    254.1187	      0.0000
    254.1225	      0.0000
    293.6324	      0.0000
    293.6371	      0.0000
    293.6419	      0.0000
    293.6467	      0.0000
    293.6515	    601.1909
    293.6562	   1153.9806
    293.6610	   1414.9529
    293.6658	   1212.3760
    293.6705	    711.7114
    293.6758	      0.0000
    293.6806	      0.0000
    293.6853	      0.0000
    293.6901	      0.0000
    373.1357	      0.0000
    373.1425	      0.0000
    373.1494	      0.0000
    373.1562	      0.0000
    373.1630	    463.9976
    373.1699	   1164.7561
    373.1767	   1619.3827
    373.1835	   1464.3417
    373.1904	    848.1786
    373.1972	      0.0000
    373.2040	      0.0000
    373.2109	      0.0000
    373.2177	      0.0000
    393.1670	      0.0000
    393.1744	      0.0000
    393.1818	      0.0000
    393.1892	      0.0000
    393.1966	    820.4419
    393.2040	   1651.5417
    393.2114	   2134.2661
    393.2188	   1921.1794
    393.2262	   1193.5637
    393.2336	    483.4165
    393.2414	      0.0000
    393.2488	      0.0000
