# ljz_20131022_MR_Chym1_ELUTE.mzML
#
# index: 5382
# id: controllerType=0 controllerNumber=1 scan=11779
# scanNumber: 11779
# massAnalyzerType: quadrupole
# scanEvent: 2
# msLevel: 2
# retentionTime: 2837.42
# filterString: FTMS + p NSI d Full ms2 637.28@hcd28.00 [100.00-1320.00]
# mzLow: 99.0036
# mzHigh: 1333.49
# basePeakMZ: 110.072
# basePeakIntensity: 21077.9
# totalIonCurrent: 273133
# precursorCount: 1
# precursor 0: 636.778 271256
# binary (1057): 
     99.0036	      0.0000
     99.0046	      0.0000
     99.0055	      0.0000
     99.0064	      0.0000
    101.0638	      0.0000
    101.0648	      0.0000
    101.0658	      0.0000
    101.0667	      0.0000
    101.0677	    511.5786
    101.0686	    986.8306
    101.0696	   3405.3015
    101.0706	   6423.5869
    101.0715	   9096.8213
    101.0725	   7880.7295
    101.0735	   4730.1924
    101.0744	   1855.0709
    101.0754	    296.8635
    101.0765	      0.0000
    101.0774	      0.0000
    101.0784	      0.0000
    101.0794	      0.0000
    110.0629	      0.0000
    110.0640	      0.0000
    110.0651	      0.0000
    110.0662	      0.0000
    110.0672	    505.2444
    110.0683	   2131.9072
    110.0694	   7096.5664
    110.0705	  13820.8291
    110.0716	  20615.2930
    110.0727	  19299.5039
    110.0738	  11966.8027
    110.0749	   5177.7236
    110.0760	   1025.8699
    110.0771	     22.1132
    110.0779	      0.0000
    110.0790	      0.0000
    110.0801	      0.0000
    110.0812	      0.0000
    120.0717	      0.0000
    120.0729	      0.0000
    120.0742	      0.0000
    120.0754	      0.0000
    120.0767	    166.5344
    120.0779	   1610.4080
    120.0792	   4153.7905
    120.0804	   6920.6499
    120.0817	   7932.5942
    120.0829	   5491.6616
    120.0842	   2864.9722
    120.0854	    643.2855
    120.0866	      0.0000
    120.0878	      0.0000
    120.0891	      0.0000
    120.0903	      0.0000
    126.0452	      0.0000
    126.0466	      0.0000
    126.0479	      0.0000
    126.0493	      0.0000
    126.0506	    276.4478
    126.0519	    865.2072
    126.0533	   2291.0515
    126.0546	   3924.5767
    126.0560	   4384.8916
    126.0573	   2976.9294
    126.0587	   1187.9147
    126.0600	    399.0872
    126.0613	      0.0000
    126.0627	      0.0000
    126.0640	      0.0000
    126.0654	      0.0000
    127.0295	      0.0000
    127.0308	      0.0000
    127.0322	      0.0000
    127.0336	      0.0000
    127.0349	    278.7569
    127.0363	    889.1792
    127.0376	   1689.6643
    127.0390	   2243.6746
    127.0404	   2185.5422
    127.0417	   1570.2642
    127.0431	    810.9260
    127.0444	    294.6655
    127.0458	      0.0000
    127.0471	      0.0000
    127.0485	      0.0000
    127.0498	      0.0000
    128.0102	      0.0000
    128.0116	      0.0000
    128.0129	      0.0000
    128.0143	      0.0000
    128.0157	    442.2791
    128.0171	    833.7192
    128.0184	   1001.0871
    128.0198	    823.1321
    128.0212	    426.1527
    128.0226	      0.0000
    128.0239	      0.0000
    128.0253	      0.0000
    128.0267	      0.0000
    129.0579	      0.0000
    129.0593	      0.0000
    129.0607	      0.0000
    129.0621	      0.0000
    129.0635	    540.6395
    129.0649	   1012.4105
    129.0663	   1278.3330
    129.0677	   1132.9875
    129.0691	    676.4318
    129.0709	      0.0000
    129.0723	      0.0000
    129.0737	      0.0000
    129.0751	      0.0000
    129.0918	      0.0000
    129.0932	      0.0000
    129.0946	      0.0000
    129.0960	      0.0000
    129.0973	    314.8057
    129.0987	   1162.5913
    129.1001	   3396.0420
    129.1015	   6047.6816
    129.1029	   8233.0166
    129.1043	   6755.4106
    129.1057	   3958.5530
    129.1071	   1299.5194
    129.1085	    113.0718
    129.1094	      0.0000
    129.1108	      0.0000
    129.1122	      0.0000
    129.1135	      0.0000
    132.0920	      0.0000
    132.0935	      0.0000
    132.0949	      0.0000
    132.0964	      0.0000
    132.0978	    746.9797
    132.0992	   2776.0698
    132.1007	   5052.9761
    132.1021	   6998.9375
    132.1036	   5799.3066
    132.1050	   3343.3540
    132.1065	   1078.1851
    132.1079	    476.9823
    132.1093	      0.0000
    132.1108	      0.0000
    132.1122	      0.0000
    132.1136	      0.0000
    133.0345	      0.0000
    133.0360	      0.0000
    133.0374	      0.0000
    133.0389	      0.0000
    133.0403	    456.5978
    133.0418	    969.0848
    133.0433	   1337.0283
    133.0447	   1318.0537
    133.0462	    922.1915
    133.0476	    423.1454
    133.0491	      0.0000
    133.0505	      0.0000
    133.0520	      0.0000
    133.0534	      0.0000
    133.0753	      0.0000
    133.0767	      0.0000
    133.0782	      0.0000
    133.0797	      0.0000
    133.0811	    641.5084
    133.0826	   1833.0684
    133.0840	   4175.7266
    133.0855	   6688.9360
    133.0869	   7512.3232
    133.0884	   5267.5298
    133.0898	   2769.0752
    133.0913	    576.8560
    133.0927	      0.0000
    133.0942	      0.0000
    133.0957	      0.0000
    133.0971	      0.0000
    134.9827	      0.0000
    134.9842	      0.0000
    134.9857	      0.0000
    134.9872	      0.0000
    134.9886	    574.4949
    134.9901	   1412.0905
    134.9916	   2993.7166
    134.9931	   4534.0117
    134.9946	   4101.3286
    134.9961	   1798.4761
    134.9976	    758.3031
    134.9990	      0.0000
    135.0005	      0.0000
    135.0020	      0.0000
    135.0035	      0.0000
    136.0662	      0.0000
    136.0677	      0.0000
    136.0692	      0.0000
    136.0707	      0.0000
    136.0722	    645.3055
    136.0737	   1361.7621
    136.0752	   1941.7836
    136.0767	   1979.5228
    136.0782	   1432.6991
    136.0797	    679.6984
    136.0812	      0.0000
    136.0827	      0.0000
    136.0842	      0.0000
    136.0857	      0.0000
    138.0446	      0.0000
    138.0462	      0.0000
    138.0477	      0.0000
    138.0492	      0.0000
    138.0508	    693.0244
    138.0523	   2578.4033
    138.0539	   4651.7358
    138.0554	   6166.4453
    138.0569	   4807.0483
    138.0585	   2772.4360
    138.0600	    806.4286
    138.0616	      0.0000
    138.0631	      0.0000
    138.0646	      0.0000
    138.0662	      0.0000
    145.0381	      0.0000
    145.0398	      0.0000
    145.0414	      0.0000
    145.0431	      0.0000
    145.0447	    461.9833
    145.0464	   1097.6960
    145.0480	   1846.5933
    145.0497	   2202.1455
    145.0514	   1854.4209
    145.0530	   1066.8481
    145.0547	    563.4658
    145.0563	    830.2122
    145.0580	   2287.0056
    145.0596	   3792.9128
    145.0613	   4204.1880
    145.0630	   2711.4487
    145.0646	   1051.7045
    145.0663	    350.1220
    145.0679	      0.0000
    145.0696	      0.0000
    145.0712	      0.0000
    145.0729	      0.0000
    145.0762	      0.0000
    145.0779	      0.0000
    145.0795	      0.0000
    145.0812	      0.0000
    145.0828	    560.3783
    145.0845	   1020.0464
    145.0862	   1233.8365
    145.0878	   1043.8796
    145.0895	    593.6625
    145.0911	      0.0000
    145.0928	      0.0000
    145.0945	      0.0000
    145.0961	      0.0000
    152.0579	      0.0000
    152.0597	      0.0000
    152.0615	      0.0000
    152.0633	      0.0000
    152.0650	    295.2194
    152.0668	    891.5254
    152.0686	   1637.8512
    152.0704	   2104.2288
    152.0721	   1949.5712
    152.0739	   1273.3910
    152.0757	    548.8046
    152.0775	      0.0000
    152.0793	      0.0000
    152.0811	      0.0000
    152.0829	      0.0000
    157.0864	      0.0000
    157.0883	      0.0000
    157.0902	      0.0000
    157.0920	      0.0000
    157.0939	    670.6969
    157.0958	   1119.2799
    157.0976	   1259.1416
    157.0995	    967.8206
    157.1014	    460.0692
    157.1032	      0.0000
    157.1051	      0.0000
    157.1070	      0.0000
    157.1088	      0.0000
    166.0731	      0.0000
    166.0752	      0.0000
    166.0772	      0.0000
    166.0792	      0.0000
    166.0813	    623.9423
    166.0833	   1352.3184
    166.0853	   1938.7904
    166.0873	   1934.4231
    166.0894	   1321.1779
    166.0914	    540.6041
    166.0934	      0.0000
    166.0954	      0.0000
    166.0975	      0.0000
    166.0995	      0.0000
    168.0537	      0.0000
    168.0558	      0.0000
    168.0579	      0.0000
    168.0599	      0.0000
    168.0620	    876.3991
    168.0641	   1604.5653
    168.0661	   1952.3871
    168.0682	   1643.6849
    168.0703	    915.5707
    168.0723	    268.2974
    168.0744	      0.0000
    168.0764	      0.0000
    168.0785	      0.0000
    168.0806	      0.0000
    171.0630	      0.0000
    171.0652	      0.0000
    171.0673	      0.0000
    171.0694	      0.0000
    171.0715	    784.9589
    171.0737	   1657.0096
    171.0758	   2275.6572
    171.0779	   2202.8342
    171.0800	   1516.9373
    171.0821	    715.1566
    171.0843	      0.0000
    171.0865	      0.0000
    171.0886	      0.0000
    171.0907	      0.0000
    173.1145	      0.0000
    173.1166	      0.0000
    173.1188	      0.0000
    173.1210	      0.0000
    173.1231	    513.8574
    173.1253	   1153.4279
    173.1274	   1697.6688
    173.1296	   1772.9661
    173.1318	   1333.5210
    173.1339	    705.3750
    173.1361	      0.0000
    173.1382	      0.0000
    173.1404	      0.0000
    173.1425	      0.0000
    177.0990	      0.0000
    177.1012	      0.0000
    177.1034	      0.0000
    177.1057	      0.0000
    177.1079	    548.1623
    177.1101	   1151.1458
    177.1124	   1520.8208
    177.1146	   1402.2429
    177.1168	    895.1631
    177.1191	    349.6715
    177.1213	      0.0000
    177.1236	      0.0000
    177.1258	      0.0000
    177.1281	      0.0000
    185.0782	      0.0000
    185.0806	      0.0000
    185.0830	      0.0000
    185.0854	      0.0000
    185.0877	    353.3031
    185.0901	    865.6438
    185.0925	   1179.1221
    185.0949	   1057.9918
    185.0973	    602.9003
    185.0997	      0.0000
    185.1021	      0.0000
    185.1045	      0.0000
    185.1069	      0.0000
    197.1106	      0.0000
    197.1133	      0.0000
    197.1159	      0.0000
    197.1185	      0.0000
    197.1211	    665.4789
    197.1238	   1909.0247
    197.1264	   3757.6970
    197.1290	   5333.6343
    197.1316	   4441.1035
    197.1343	   2607.7334
    197.1369	    876.3323
    197.1395	    291.7123
    197.1421	      0.0000
    197.1448	      0.0000
    197.1474	      0.0000
    197.1500	      0.0000
    200.0865	      0.0000
    200.0892	      0.0000
    200.0918	      0.0000
    200.0945	      0.0000
    200.0972	    779.6268
    200.0999	   1506.6051
    200.1026	   1966.9890
    200.1053	   1833.8197
    200.1080	   1226.3501
    200.1106	    562.4060
    200.1133	      0.0000
    200.1160	      0.0000
    200.1187	      0.0000
    200.1214	      0.0000
    200.1241	      0.0000
    200.1268	      0.0000
    200.1294	      0.0000
    200.1321	      0.0000
    200.1348	    749.6418
    200.1375	   1358.3651
    200.1402	   1724.4755
    200.1429	   1582.8024
    200.1456	   1028.6691
    200.1482	    437.1434
    200.1510	      0.0000
    200.1537	      0.0000
    200.1564	      0.0000
    200.1591	      0.0000
    204.0672	      0.0000
    204.0700	      0.0000
    204.0728	      0.0000
    204.0755	      0.0000
    204.0783	    774.5656
    204.0810	   1725.7094
    204.0838	   3370.7852
    204.0866	   4739.4131
    204.0893	   3932.2104
    204.0921	   2346.9851
    204.0949	    703.8958
    204.0976	      0.0000
    204.1004	      0.0000
    204.1031	      0.0000
    204.1059	      0.0000
    210.0061	      0.0000
    210.0090	      0.0000
    210.0118	      0.0000
    210.0147	      0.0000
    210.0176	    603.5499
    210.0205	   1406.7434
    210.0234	   2232.5234
    210.0263	   2541.8066
    210.0292	   2091.2708
    210.0321	   1196.6631
    210.0349	    415.7388
    210.0378	      0.0000
    210.0407	      0.0000
    210.0436	      0.0000
    210.0465	      0.0000
    213.0702	      0.0000
    213.0732	      0.0000
    213.0761	      0.0000
    213.0791	      0.0000
    213.0820	    622.0801
    213.0850	   1029.5276
    213.0879	   1141.0916
    213.0909	    877.4617
    213.0938	    436.1030
    213.0968	      0.0000
    213.0997	      0.0000
    213.1027	      0.0000
    213.1056	      0.0000
    214.1363	      0.0000
    214.1392	      0.0000
    214.1422	      0.0000
    214.1452	      0.0000
    214.1482	    716.3918
    214.1511	   1406.7552
    214.1541	   1877.0186
    214.1571	   1776.7137
    214.1600	   1170.5112
    214.1630	    502.2201
    214.1661	      0.0000
    214.1691	      0.0000
    214.1720	      0.0000
    214.1750	      0.0000
    216.0785	      0.0000
    216.0815	      0.0000
    216.0845	      0.0000
    216.0875	      0.0000
    216.0905	    380.6668
    216.0936	   1157.1936
    216.0966	   1838.2695
    216.0996	   1899.7291
    216.1026	   1300.1385
    216.1056	    529.9618
    216.1086	      0.0000
    216.1116	      0.0000
    216.1146	      0.0000
    216.1176	      0.0000
    225.0751	      0.0000
    225.0783	      0.0000
    225.0815	      0.0000
    225.0847	      0.0000
    225.0879	    685.5974
    225.0911	   2080.9636
    225.0943	   4247.4287
    225.0975	   6492.2905
    225.1007	   6294.6929
    225.1039	   4031.6482
    225.1071	   1915.8783
    225.1104	    458.0859
    225.1130	      0.0000
    225.1162	      0.0000
    225.1194	      0.0000
    225.1226	      0.0000
    242.1220	      0.0000
    242.1256	      0.0000
    242.1292	      0.0000
    242.1328	      0.0000
    242.1363	    398.5540
    242.1399	   3031.3213
    242.1435	   8265.2822
    242.1471	  13981.5645
    242.1506	  16318.5820
    242.1542	  11479.8359
    242.1578	   6180.4097
    242.1613	   1880.4042
    242.1649	    493.6812
    242.1684	      0.0000
    242.1720	      0.0000
    242.1756	      0.0000
    242.1792	      0.0000
    243.1077	      0.0000
    243.1113	      0.0000
    243.1149	      0.0000
    243.1185	      0.0000
    243.1221	    526.1355
    243.1257	   3322.2205
    243.1293	   6792.1597
    243.1329	  10071.6416
    243.1365	   8686.9834
    243.1401	   5124.8306
    243.1437	   1975.6313
    243.1473	   1060.6251
    243.1509	   1034.6980
    243.1552	   1272.3705
    243.1588	    933.0731
    243.1624	    321.6179
    243.1660	      0.0000
    243.1696	      0.0000
    243.1732	      0.0000
    243.1768	      0.0000
    260.1331	      0.0000
    260.1371	      0.0000
    260.1411	      0.0000
    260.1451	      0.0000
    260.1490	    788.6124
    260.1530	   1992.7015
    260.1570	   3582.5422
    260.1610	   4502.9282
    260.1650	   3277.4099
    260.1689	   1382.1482
    260.1729	    501.6116
    260.1769	      0.0000
    260.1808	      0.0000
    260.1848	      0.0000
    260.1888	      0.0000
    268.2331	      0.0000
    268.2372	      0.0000
    268.2414	      0.0000
    268.2456	      0.0000
    268.2497	    634.1509
    268.2539	    969.7624
    268.2581	   1078.8354
    268.2622	    907.6378
    268.2664	    570.8366
    268.2707	      0.0000
    268.2748	      0.0000
    268.2790	      0.0000
    268.2832	      0.0000
    276.0767	      0.0000
    276.0811	      0.0000
    276.0854	      0.0000
    276.0898	      0.0000
    276.0941	    643.7808
    276.0985	   1089.3237
    276.1028	   1294.6300
    276.1072	   1093.4524
    276.1115	    606.2466
    276.1159	      0.0000
    276.1202	      0.0000
    276.1246	      0.0000
    276.1289	      0.0000
    280.0792	      0.0000
    280.0837	      0.0000
    280.0881	      0.0000
    280.0926	      0.0000
    280.0970	    769.7365
    280.1015	   2316.9971
    280.1059	   4143.1636
    280.1104	   5079.2373
    280.1148	   3541.1643
    280.1192	   1784.4655
    280.1237	    275.6751
    280.1282	      0.0000
    280.1327	      0.0000
    280.1371	      0.0000
    280.1415	      0.0000
    308.0656	      0.0000
    308.0707	      0.0000
    308.0758	      0.0000
    308.0809	      0.0000
    308.0861	    421.8358
    308.0912	   1271.8274
    308.0963	   3209.3918
    308.1015	   5309.7954
    308.1066	   5775.6245
    308.1117	   3908.6033
    308.1168	   2015.2408
    308.1220	    551.3580
    308.1272	      0.0000
    308.1323	      0.0000
    308.1375	      0.0000
    308.1426	      0.0000
    326.0775	      0.0000
    326.0830	      0.0000
    326.0886	      0.0000
    326.0942	      0.0000
    326.0998	    393.9547
    326.1054	   1143.3763
    326.1110	   2071.7112
    326.1166	   2578.5742
    326.1221	   2331.8442
    326.1277	   1566.9481
    326.1333	    790.8102
    326.1389	      0.0000
    326.1445	      0.0000
    326.1501	      0.0000
    326.1556	      0.0000
    332.0277	      0.0000
    332.0334	      0.0000
    332.0391	      0.0000
    332.0449	      0.0000
    332.0506	    411.9817
    332.0564	    973.8828
    332.0621	   1307.7034
    332.0678	   1164.1505
    332.0736	    678.4525
    332.0794	      0.0000
    332.0852	      0.0000
    332.0909	      0.0000
    332.0967	      0.0000
    353.1132	      0.0000
    353.1195	      0.0000
    353.1258	      0.0000
    353.1321	      0.0000
    353.1384	    488.6293
    353.1447	   1203.7651
    353.1510	   2028.2163
    353.1573	   2428.6130
    353.1635	   2052.3037
    353.1698	   1147.8684
    353.1761	    393.2664
    353.1826	      0.0000
    353.1889	      0.0000
    353.1952	      0.0000
    353.2015	      0.0000
    367.0912	      0.0000
    367.0979	      0.0000
    367.1046	      0.0000
    367.1112	      0.0000
    367.1179	    847.8444
    367.1246	   3126.5933
    367.1312	   5541.3027
    367.1379	   6798.8677
    367.1446	   4839.8022
    367.1513	   2557.4167
    367.1579	    682.6127
    367.1646	      0.0000
    367.1713	      0.0000
    367.1779	      0.0000
    367.1846	      0.0000
    372.0510	      0.0000
    372.0578	      0.0000
    372.0647	      0.0000
    372.0715	      0.0000
    372.0783	    510.1088
    372.0851	    978.1522
    372.0919	   1299.6882
    372.0987	   1273.9335
    372.1055	    901.3279
    372.1123	      0.0000
    372.1191	      0.0000
    372.1259	      0.0000
    372.1327	      0.0000
    381.1382	      0.0000
    381.1453	      0.0000
    381.1523	      0.0000
    381.1594	      0.0000
    381.1664	    388.9909
    381.1735	   1072.6869
    381.1805	   1761.0934
    381.1876	   1977.4086
    381.1947	   1555.7039
    381.2017	    809.2686
    381.2089	      0.0000
    381.2160	      0.0000
    381.2231	      0.0000
    381.2301	      0.0000
    406.1084	      0.0000
    406.1161	      0.0000
    406.1239	      0.0000
    406.1316	      0.0000
    406.1394	    656.0139
    406.1472	   1178.9742
    406.1549	   1379.4796
    406.1627	   1123.1019
    406.1705	    612.2031
    406.1782	      0.0000
    406.1860	      0.0000
    406.1938	      0.0000
    406.2015	      0.0000
    409.1057	      0.0000
    409.1136	      0.0000
    409.1214	      0.0000
    409.1293	      0.0000
    409.1371	    451.5651
    409.1450	    964.3036
    409.1528	   1243.3193
    409.1607	   1013.2805
    409.1685	    452.4782
    409.1766	      0.0000
    409.1844	      0.0000
    409.1923	      0.0000
    409.2001	      0.0000
    436.0924	      0.0000
    436.1011	      0.0000
    436.1097	      0.0000
    436.1183	      0.0000
    436.1270	    514.5302
    436.1356	   1384.7548
    436.1443	   3158.7446
    436.1529	   5097.5786
    436.1615	   5342.3716
    436.1702	   3484.8616
    436.1788	   1657.5206
    436.1875	    522.2523
    436.1961	      0.0000
    436.2047	      0.0000
    436.2134	      0.0000
    436.2220	      0.0000
    440.1283	      0.0000
    440.1371	      0.0000
    440.1458	      0.0000
    440.1546	      0.0000
    440.1634	    438.7260
    440.1721	   1267.4293
    440.1809	   2320.1782
    440.1896	   3936.1108
    440.1984	   2338.3374
    440.2072	   1292.0403
    440.2159	    434.0863
    440.2247	      0.0000
    440.2334	      0.0000
    440.2422	      0.0000
    440.2510	      0.0000
    454.1070	      0.0000
    454.1162	      0.0000
    454.1254	      0.0000
