# ljz_20131022_MR_Chym1_ELUTE.mzML
#
# index: 653
# id: controllerType=0 controllerNumber=1 scan=5720
# scanNumber: 5720
# massAnalyzerType: quadrupole
# scanEvent: 2
# msLevel: 2
# retentionTime: 1744.4
# filterString: FTMS + p NSI d Full ms2 810.34@hcd28.00 [100.00-2500.00]
# mzLow: 99.0046
# mzHigh: 2525.64
# basePeakMZ: 204.087
# basePeakIntensity: 85169.9
# totalIonCurrent: 552135
# precursorCount: 1
# precursor 0: 810.339 657966
# binary (959): 
     99.0046	      0.0000
     99.0055	      0.0000
     99.0065	      0.0000
     99.0074	      0.0000
    115.0307	      0.0000
    115.0318	      0.0000
    115.0330	      0.0000
    115.0342	      0.0000
    115.0353	    323.3941
    115.0365	   1064.3732
    115.0377	   3993.1021
    115.0389	   6698.4614
    115.0400	   8834.2383
    115.0412	   7255.6313
    115.0424	   4125.4282
    115.0435	   1064.4441
    115.0447	      0.0000
    115.0450	      0.0000
    115.0462	      0.0000
    115.0474	      0.0000
    115.0485	      0.0000
    126.0443	      0.0000
    126.0456	      0.0000
    126.0469	      0.0000
    126.0483	      0.0000
    126.0496	    522.5698
    126.0510	   2340.8894
    126.0523	   7482.8325
    126.0537	  14836.4355
    126.0550	  22601.4824
    126.0563	  22157.2969
    126.0577	  14027.5244
    126.0590	   6374.3467
    126.0604	   1334.7438
    126.0617	    203.8173
    126.0630	      0.0000
    126.0644	      0.0000
    126.0657	      0.0000
    126.0670	      0.0000
    127.0285	      0.0000
    127.0298	      0.0000
    127.0312	      0.0000
    127.0325	      0.0000
    127.0339	    668.2474
    127.0353	   2902.4165
    127.0366	   8719.1729
    127.0380	  15685.6299
    127.0393	  22028.8203
    127.0407	  19315.1211
    127.0421	  11650.4170
    127.0434	   4549.2007
    127.0448	    479.5132
    127.0458	      0.0000
    127.0471	      0.0000
    127.0485	      0.0000
    127.0499	      0.0000
    128.0336	      0.0000
    128.0349	      0.0000
    128.0363	      0.0000
    128.0377	      0.0000
    128.0391	    780.7023
    128.0404	   1258.5607
    128.0418	   1516.5972
    128.0432	   1356.7466
    128.0446	    852.5909
    128.0459	      0.0000
    128.0473	      0.0000
    128.0487	      0.0000
    128.0500	      0.0000
    129.0468	      0.0000
    129.0482	      0.0000
    129.0496	      0.0000
    129.0510	      0.0000
    129.0524	    697.8167
    129.0538	   1115.4307
    129.0551	   1263.8815
    129.0565	   1028.1736
    129.0579	    560.4296
    129.0593	      0.0000
    129.0607	      0.0000
    129.0621	      0.0000
    129.0635	      0.0000
    129.0927	      0.0000
    129.0941	      0.0000
    129.0955	      0.0000
    129.0969	      0.0000
    129.0983	    787.9814
    129.0997	   2003.3480
    129.1010	   4111.6436
    129.1024	   6068.7798
    129.1038	   5171.1177
    129.1052	   2978.9255
    129.1066	   1048.3234
    129.1080	    380.1722
    129.1096	      0.0000
    129.1110	      0.0000
    129.1124	      0.0000
    129.1138	      0.0000
    138.0403	      0.0000
    138.0419	      0.0000
    138.0434	      0.0000
    138.0449	      0.0000
    138.0465	    727.3456
    138.0480	   1692.8110
    138.0495	   4098.2417
    138.0511	  11968.4053
    138.0526	  30672.6543
    138.0542	  51173.6719
    138.0557	  62734.7031
    138.0572	  46297.0898
    138.0588	  25851.1973
    138.0603	   7204.1890
    138.0619	    909.3164
    138.0631	      0.0000
    138.0646	      0.0000
    138.0662	      0.0000
    138.0677	      0.0000
    139.0470	      0.0000
    139.0485	      0.0000
    139.0501	      0.0000
    139.0516	      0.0000
    139.0532	    510.5386
    139.0548	   1453.0764
    139.0563	   3698.5076
    139.0579	   5605.2217
    139.0594	   5185.3687
    139.0610	   3041.6584
    139.0625	   1058.3041
    139.0641	    589.9466
    139.0657	      0.0000
    139.0672	      0.0000
    139.0688	      0.0000
    139.0703	      0.0000
    144.0557	      0.0000
    144.0573	      0.0000
    144.0589	      0.0000
    144.0606	      0.0000
    144.0622	    659.5920
    144.0639	   1644.9448
    144.0655	   2413.9629
    144.0671	   2365.5269
    144.0688	   1560.8513
    144.0704	    637.6447
    144.0725	      0.0000
    144.0742	      0.0000
    144.0758	      0.0000
    144.0774	      0.0000
    145.0353	      0.0000
    145.0369	      0.0000
    145.0386	      0.0000
    145.0402	      0.0000
    145.0419	    510.5517
    145.0436	   1424.6813
    145.0452	   4109.6572
    145.0469	  11492.4307
    145.0485	  19582.4629
    145.0502	  25227.3418
    145.0518	  19247.2656
    145.0535	  10932.4727
    145.0552	   2898.8486
    145.0568	     23.4800
    145.0580	      0.0000
    145.0597	      0.0000
    145.0613	      0.0000
    145.0630	      0.0000
    149.0478	      0.0000
    149.0495	      0.0000
    149.0512	      0.0000
    149.0530	      0.0000
    149.0547	    573.9970
    149.0564	   1002.0729
    149.0581	   1197.9500
    149.0599	   1019.9890
    149.0616	    582.0146
    149.0636	      0.0000
    149.0653	      0.0000
    149.0670	      0.0000
    149.0687	      0.0000
    163.0440	      0.0000
    163.0459	      0.0000
    163.0479	      0.0000
    163.0499	      0.0000
    163.0519	    635.7783
    163.0538	   2699.8118
    163.0558	   9501.1484
    163.0578	  18846.2031
    163.0598	  28533.6367
    163.0617	  27367.5332
    163.0637	  17202.2305
    163.0657	   7733.1743
    163.0677	   1705.8586
    163.0696	    175.0602
    163.0714	      0.0000
    163.0734	      0.0000
    163.0753	      0.0000
    163.0773	      0.0000
    168.0413	      0.0000
    168.0434	      0.0000
    168.0455	      0.0000
    168.0475	      0.0000
    168.0496	    342.5852
    168.0517	   1616.4602
    168.0537	   1161.2036
    168.0560	   1239.5259
    168.0581	   2369.1509
    168.0602	   7172.0830
    168.0622	  18127.6719
    168.0643	  30037.9707
    168.0664	  36067.5117
    168.0684	  26077.3145
    168.0705	  14202.2324
    168.0726	   3852.1526
    168.0746	    463.2336
    168.0764	      0.0000
    168.0785	      0.0000
    168.0806	      0.0000
    168.0826	      0.0000
    169.0542	      0.0000
    169.0563	      0.0000
    169.0584	      0.0000
    169.0605	      0.0000
    169.0625	    349.9974
    169.0646	   1051.2356
    169.0667	   1858.4989
    169.0688	   2259.1548
    169.0709	   1948.8223
    169.0730	   1157.6606
    169.0750	    438.5679
    169.0774	      0.0000
    169.0795	      0.0000
    169.0815	      0.0000
    169.0836	      0.0000
    186.0567	      0.0000
    186.0591	      0.0000
    186.0615	      0.0000
    186.0639	      0.0000
    186.0663	    592.0687
    186.0687	   1917.6277
    186.0711	   6371.1685
    186.0735	  12279.9629
    186.0759	  18112.5977
    186.0783	  16891.3301
    186.0807	  10541.1211
    186.0831	   4654.7930
    186.0855	   1082.8429
    186.0879	     26.9433
    186.0902	      0.0000
    186.0926	      0.0000
    186.0950	      0.0000
    186.0974	      0.0000
    187.0644	      0.0000
    187.0668	      0.0000
    187.0692	      0.0000
    187.0717	      0.0000
    187.0741	    798.6991
    187.0765	   1527.4998
    187.0789	   1883.2876
    187.0814	   1619.7416
    187.0838	    954.3934
    187.0863	      0.0000
    187.0887	      0.0000
    187.0912	      0.0000
    187.0936	      0.0000
    204.0534	      0.0000
    204.0562	      0.0000
    204.0589	      0.0000
    204.0617	      0.0000
    204.0645	      0.0000
    204.0672	      0.0000
    204.0700	      0.0000
    204.0733	   1953.4252
    204.0760	   4021.6919
    204.0788	  11637.3936
    204.0815	  34796.8672
    204.0843	  61959.5000
    204.0871	  84922.5078
    204.0898	  70555.7656
    204.0926	  41950.1680
    204.0954	  15120.9580
    204.0981	   3161.0007
    204.1009	    788.7098
    204.1032	      0.0000
    204.1059	      0.0000
    204.1087	      0.0000
    204.1115	      0.0000
    205.0691	      0.0000
    205.0719	      0.0000
    205.0747	      0.0000
    205.0775	      0.0000
    205.0802	    478.5860
    205.0830	   1446.5222
    205.0858	   4152.4600
    205.0886	   6278.8931
    205.0914	   6291.1084
    205.0942	   3925.1030
    205.0970	   1693.0636
    205.0997	      0.0000
    205.1027	      0.0000
    205.1054	      0.0000
    205.1082	      0.0000
    205.1110	      0.0000
    246.1240	      0.0000
    246.1277	      0.0000
    246.1314	      0.0000
    246.1350	      0.0000
    246.1387	    879.0485
    246.1424	   1541.1500
    246.1460	   1846.4340
    246.1497	   1562.5479
    246.1533	    893.1630
    246.1571	      0.0000
    246.1608	      0.0000
    246.1644	      0.0000
    246.1681	      0.0000
    289.0991	      0.0000
    289.1037	      0.0000
    289.1084	      0.0000
    289.1130	      0.0000
    289.1177	    707.9149
    289.1224	   2525.5251
    289.1270	   4957.8838
    289.1317	   7416.6914
    289.1364	   6969.3506
    289.1410	   4256.0234
    289.1457	   1721.2292
    289.1503	     68.9313
    289.1552	      0.0000
    289.1599	      0.0000
    289.1646	      0.0000
    289.1692	      0.0000
    316.0813	      0.0000
    316.0866	      0.0000
    316.0920	      0.0000
    316.0973	      0.0000
    316.1026	    652.1670
    316.1080	   1307.8424
    316.1133	   1655.5262
    316.1186	   1401.7966
    316.1240	    742.9827
    316.1295	      0.0000
    316.1349	      0.0000
    316.1402	      0.0000
    316.1455	      0.0000
    365.5086	      0.0000
    365.5152	      0.0000
    365.5218	      0.0000
    365.5284	      0.0000
    365.5351	    757.5410
    365.5417	   1257.7352
    365.5483	   1440.0880
    365.5550	   1183.2462
    365.5616	    666.7069
    365.5695	      0.0000
    365.5761	      0.0000
    365.5827	      0.0000
    365.5894	      0.0000
    366.0872	      0.0000
    366.0938	      0.0000
    366.1004	      0.0000
    366.1071	      0.0000
    366.1137	    493.0479
    366.1204	   1505.9132
    366.1270	   4732.5762
    366.1337	   8560.4180
    366.1403	  11769.4072
    366.1470	   9633.5889
    366.1536	   5549.8848
    366.1603	   1760.5555
    366.1669	     63.8061
    366.1723	      0.0000
    366.1789	      0.0000
    366.1856	      0.0000
    366.1922	      0.0000
    367.0979	      0.0000
    367.1046	      0.0000
    367.1112	      0.0000
    367.1179	      0.0000
    367.1246	    696.5416
    367.1312	   1534.6157
    367.1379	   2269.1226
    367.1446	   2361.0996
    367.1513	   1737.7616
    367.1579	    837.9731
    367.1649	      0.0000
    367.1716	      0.0000
    367.1783	      0.0000
    367.1850	      0.0000
    428.1602	      0.0000
    428.1686	      0.0000
    428.1770	      0.0000
    428.1854	      0.0000
    428.1938	    585.3301
    428.2022	   1360.8295
    428.2106	   1901.0509
    428.2190	   1811.3782
    428.2274	   1180.9668
    428.2358	    488.8423
    428.2442	      0.0000
    428.2526	      0.0000
    428.2610	      0.0000
    428.2694	      0.0000
    446.1629	      0.0000
    446.1718	      0.0000
    446.1808	      0.0000
    446.1897	      0.0000
    446.1986	    344.3060
    446.2076	   1047.4614
    446.2165	   1869.2664
    446.2255	   2255.6453
    446.2344	   1952.0536
    446.2433	   1209.3176
    446.2523	    498.0143
    446.2612	      0.0000
    446.2702	      0.0000
    446.2791	      0.0000
    446.2881	      0.0000
    447.1657	      0.0000
    447.1747	      0.0000
    447.1837	      0.0000
    447.1927	      0.0000
    447.2016	    381.1512
    447.2106	   1045.7914
    447.2196	   1694.9846
    447.2285	   1878.6958
    447.2375	   1471.5986
    447.2465	    781.7814
    447.2559	      0.0000
    447.2649	      0.0000
    447.2739	      0.0000
    447.2828	      0.0000
    510.2056	      0.0000
    510.2165	      0.0000
    510.2274	      0.0000
    510.2384	      0.0000
    510.2493	    923.2542
    510.2602	   1433.3754
    510.2712	   1469.8652
    510.2821	   1026.8832
    510.2930	    436.3525
    510.3040	      0.0000
    510.3149	      0.0000
    510.3258	      0.0000
    510.3368	      0.0000
    529.0550	      0.0000
    529.0665	      0.0000
    529.0781	      0.0000
    529.0896	      0.0000
    529.1011	    505.6611
    529.1127	   1152.6458
    529.1242	   1721.0327
    529.1358	   1793.9803
    529.1473	   1264.0869
    529.1589	    579.1196
    529.1704	      0.0000
    529.1820	    868.2949
    529.1935	   1504.5133
    529.2051	   1617.8250
    529.2166	   1073.2806
    529.2282	    352.6558
    529.2398	      0.0000
    529.2513	      0.0000
    529.2629	      0.0000
    529.2744	      0.0000
    587.1205	      0.0000
    587.1340	      0.0000
    587.1475	      0.0000
    587.1610	      0.0000
    587.1745	    943.8177
    587.1880	   1326.9340
    587.2015	   1407.3104
    587.2150	   1108.7520
    587.2284	    590.0048
    587.2419	      0.0000
    587.2554	      0.0000
    587.2689	      0.0000
    587.2824	      0.0000
    590.1957	      0.0000
    590.2093	      0.0000
    590.2229	      0.0000
    590.2365	      0.0000
    590.2501	    734.2370
    590.2637	   1201.7653
    590.2773	   1344.4246
    590.2909	   1054.3516
    590.3045	    537.3381
    590.3181	      0.0000
    590.3318	      0.0000
    590.3454	      0.0000
    590.3590	      0.0000
    632.1874	      0.0000
    632.2024	      0.0000
    632.2175	      0.0000
    632.2326	      0.0000
    632.2477	    588.0494
    632.2627	   1220.2754
    632.2778	   1859.7123
    632.2929	   2153.0320
    632.3080	   1890.3512
    632.3231	   1204.9263
    632.3382	    499.5926
    632.3564	      0.0000
    632.3715	      0.0000
    632.3866	      0.0000
    632.4016	      0.0000
    649.1860	      0.0000
    649.2017	      0.0000
    649.2174	      0.0000
    649.2331	      0.0000
    649.2488	    635.5274
    649.2645	   2485.5679
    649.2802	   5407.9897
    649.2959	   8584.8750
    649.3116	   8876.9600
    649.3273	   5694.2134
    649.3430	   2665.0447
    649.3587	    429.1135
    649.3749	      0.0000
    649.3906	      0.0000
    649.4062	      0.0000
    649.4219	      0.0000
    650.1604	      0.0000
    650.1761	      0.0000
    650.1918	      0.0000
    650.2075	      0.0000
    650.2233	    794.8765
    650.2390	   1065.6556
    650.2547	   2630.6335
    650.2705	   8424.4561
    650.2862	  16252.7715
    650.3019	  23890.4336
    650.3176	  21626.5254
    650.3334	  13061.9463
    650.3491	   5105.5889
    650.3648	    893.6550
    650.3812	      0.0000
    650.3970	      0.0000
    650.4127	      0.0000
    650.4284	      0.0000
    650.6802	      0.0000
    650.6960	      0.0000
    650.7117	      0.0000
    650.7275	      0.0000
    650.7432	    604.3489
    650.7590	   1659.9332
    650.7747	   4959.9380
    650.7905	   8912.9277
    650.8062	  12232.1025
    650.8220	  10256.3701
    650.8377	   5991.2500
    650.8535	   1991.4419
    650.8692	      0.0000
    650.8807	      0.0000
    650.8964	      0.0000
    650.9122	      0.0000
    650.9279	      0.0000
    651.1958	      0.0000
    651.2116	      0.0000
    651.2273	      0.0000
    651.2431	      0.0000
    651.2589	    581.9016
    651.2746	   1566.5557
    651.2904	   3435.0828
    651.3062	   5007.7793
    651.3219	   4065.9355
    651.3377	   1805.5756
    651.3535	    681.9244
    651.3693	      0.0000
    651.3850	      0.0000
    651.4008	      0.0000
    651.4166	      0.0000
    689.1928	      0.0000
    689.2099	      0.0000
    689.2271	      0.0000
    689.2442	      0.0000
    689.2614	    713.6953
    689.2786	   1367.1653
    689.2957	   1884.4196
    689.3129	   1943.5419
    689.3301	   1480.1637
    689.3472	    770.4332
    689.3644	      0.0000
    689.3816	      0.0000
    689.3988	      0.0000
    689.4160	      0.0000
    743.7137	      0.0000
    743.7329	      0.0000
    743.7522	      0.0000
    743.7714	      0.0000
    743.7907	    680.9399
    743.8099	   1298.2810
    743.8292	   1557.6469
    743.8484	   1263.7078
    743.8676	    667.5673
    743.8883	      0.0000
    743.9076	      0.0000
    743.9268	      0.0000
    743.9460	      0.0000
    751.6855	      0.0000
    751.7050	      0.0000
    751.7246	      0.0000
    751.7441	      0.0000
    751.7637	    377.2836
    751.7832	   1585.1815
    751.8028	   5152.2515
    751.8223	   8929.7754
    751.8419	  11575.9932
    751.8615	   8848.9434
    751.8810	   4966.7471
    751.9006	   1355.7473
    751.9201	     28.2839
    751.9383	      0.0000
    751.9578	      0.0000
    751.9774	      0.0000
    751.9970	      0.0000
    752.1926	      0.0000
    752.2122	      0.0000
    752.2317	      0.0000
    752.2513	      0.0000
    752.2709	    530.7480
    752.2905	   1700.4191
    752.3100	   4177.4712
    752.3296	   6870.6431
    752.3492	   7558.4741
    752.3688	   4983.4268
    752.3883	   2310.7468
    752.4079	    297.3651
    752.4275	      0.0000
    752.4471	      0.0000
    752.4667	      0.0000
    752.4863	      0.0000
    806.2712	      0.0000
    806.2929	      0.0000
    806.3146	      0.0000
    806.3363	      0.0000
    806.3580	    756.5436
    806.3798	   1357.8792
    806.4015	   1648.4580
    806.4232	   1408.0734
    806.4449	    801.7564
    806.4666	      0.0000
    806.4884	      0.0000
    806.5101	      0.0000
    806.5318	      0.0000
    808.2509	      0.0000
    808.2727	      0.0000
    808.2945	      0.0000
    808.3163	      0.0000
    808.3381	    593.9214
    808.3599	   1304.8550
    808.3817	   1785.3557
    808.4035	   1692.3876
    808.4253	   1088.4364
    808.4499	      0.0000
    808.4717	      0.0000
    808.4935	      0.0000
    808.5154	      0.0000
    832.6821	      0.0000
    832.7049	      0.0000
    832.7277	      0.0000
    832.7505	      0.0000
    832.7733	    616.0404
    832.7960	   1138.9365
    832.8188	   3945.3682
    832.8416	   7219.5171
    832.8644	  10084.4404
    832.8872	   8477.2412
    832.9100	   4977.2773
    832.9328	   1723.5629
    832.9556	    353.8825
    832.9757	      0.0000
    832.9985	      0.0000
    833.0213	      0.0000
    833.0441	      0.0000
    833.2037	      0.0000
    833.2266	      0.0000
    833.2494	      0.0000
    833.2722	      0.0000
    833.2950	   1017.1273
    833.3178	   3520.6729
    833.3406	   6315.5151
    833.3635	   8536.0977
    833.3863	   6879.8032
    833.4091	   4018.0503
    833.4319	   1263.9329
    833.4547	    196.7870
    833.4776	      0.0000
    833.5004	      0.0000
    833.5232	      0.0000
    833.5460	      0.0000
    833.7287	      0.0000
    833.7515	      0.0000
    833.7744	      0.0000
    833.7972	      0.0000
    833.8200	    683.3660
    833.8429	   1468.1884
    833.8657	   2035.4268
    833.8886	   1997.4332
    833.9114	   1381.4971
    833.9342	    615.4265
    833.9572	      0.0000
    833.9800	      0.0000
    834.0028	      0.0000
    834.0257	      0.0000
    872.7222	      0.0000
    872.7466	      0.0000
    872.7711	      0.0000
    872.7955	      0.0000
    872.8200	    584.7023
    872.8445	   1195.2687
    872.8689	   1508.7094
    872.8934	   1314.5353
    872.9178	    782.0401
    872.9423	      0.0000
    872.9668	      0.0000
    872.9913	      0.0000
    873.0157	      0.0000
    906.2313	      0.0000
    906.2572	      0.0000
    906.2831	      0.0000
    906.3090	      0.0000
    906.3349	    743.9146
    906.3607	   1279.1752
    906.3866	   1485.0184
    906.4125	   1188.6123
    906.4384	    585.3523
    906.4643	      0.0000
    906.4902	      0.0000
    906.5161	      0.0000
    906.5420	      0.0000
    913.7301	      0.0000
    913.7563	      0.0000
    913.7825	      0.0000
    913.8087	      0.0000
    913.8349	    800.6207
    913.8611	   1665.2158
    913.8873	   2186.9153
    913.9135	   1970.7638
    913.9397	   1187.3214
    913.9659	    405.4030
    913.9922	      0.0000
    914.0184	      0.0000
    914.0446	      0.0000
    914.0708	      0.0000
    914.2281	      0.0000
    914.2543	      0.0000
    914.2805	      0.0000
    914.3068	      0.0000
    914.3330	   1061.1482
    914.3592	   1882.6349
    914.3854	   2210.0291
    914.4117	   1772.3003
