# ljz_20131022_MR_Chym1_ELUTE.mzML
#
# index: 513
# id: controllerType=0 controllerNumber=1 scan=5537
# scanNumber: 5537
# massAnalyzerType: quadrupole
# scanEvent: 2
# msLevel: 2
# retentionTime: 1711.14
# filterString: FTMS + p NSI d Full ms2 325.81@hcd28.00 [100.00-1020.00]
# mzLow: 99.0036
# mzHigh: 1030.38
# basePeakMZ: 110.072
# basePeakIntensity: 68101.8
# totalIonCurrent: 532168
# precursorCount: 1
# precursor 0: 325.813 882077
# binary (1752): 
     99.0036	      0.0000
     99.0045	      0.0000
     99.0054	      0.0000
     99.0064	      0.0000
    104.4978	      0.0000
    104.4988	      0.0000
    104.4999	      0.0000
    104.5009	      0.0000
    104.5019	    551.6541
    104.5029	    859.3337
    104.5039	    941.6991
    104.5049	    726.3959
    104.5059	    354.5781
    104.5069	      0.0000
    104.5079	      0.0000
    104.5089	      0.0000
    104.5099	      0.0000
    110.0583	      0.0000
    110.0594	      0.0000
    110.0604	      0.0000
    110.0615	      0.0000
    110.0626	      0.0000
    110.0637	      0.0000
    110.0648	      0.0000
    110.0661	   1722.9907
    110.0672	   2623.4341
    110.0683	   7214.7183
    110.0694	  22932.2012
    110.0705	  44557.9492
    110.0716	  66547.3984
    110.0727	  62538.3242
    110.0738	  38967.8438
    110.0749	  17139.3672
    110.0760	   3842.0361
    110.0771	    737.9609
    110.0780	      0.0000
    110.0791	      0.0000
    110.0802	      0.0000
    110.0813	      0.0000
    110.0823	      0.0000
    110.0834	      0.0000
    110.0845	      0.0000
    110.0856	      0.0000
    111.0484	      0.0000
    111.0495	      0.0000
    111.0506	      0.0000
    111.0517	      0.0000
    111.0528	    466.5433
    111.0539	    948.8568
    111.0550	   1360.8895
    111.0561	   1436.3871
    111.0573	   1116.0145
    111.0584	    609.4932
    111.0595	      0.0000
    111.0606	      0.0000
    111.0617	      0.0000
    111.0628	      0.0000
    111.0672	      0.0000
    111.0684	      0.0000
    111.0695	      0.0000
    111.0706	      0.0000
    111.0717	    421.1684
    111.0728	   1145.6049
    111.0739	   2683.7390
    111.0750	   3578.3628
    111.0761	   2818.2251
    111.0772	   1277.9666
    111.0783	    518.9957
    111.0794	      0.0000
    111.0805	      0.0000
    111.0816	      0.0000
    111.0828	      0.0000
    114.9079	      0.0000
    114.9091	      0.0000
    114.9103	      0.0000
    114.9114	      0.0000
    114.9126	    361.6270
    114.9138	    743.4153
    114.9150	    944.9933
    114.9161	    831.0407
    114.9173	    502.0340
    114.9185	      0.0000
    114.9196	      0.0000
    114.9208	      0.0000
    114.9220	      0.0000
    115.0436	      0.0000
    115.0448	      0.0000
    115.0459	      0.0000
    115.0471	      0.0000
    115.0483	    632.9023
    115.0494	   1155.6688
    115.0506	   1387.2101
    115.0518	   1161.4397
    115.0530	    656.7061
    115.0541	    217.6575
    115.0553	      0.0000
    115.0565	      0.0000
    115.0576	      0.0000
    115.0588	      0.0000
    115.0799	      0.0000
    115.0811	      0.0000
    115.0822	      0.0000
    115.0834	      0.0000
    115.0846	    619.9842
    115.0857	   1114.2943
    115.0869	   1341.7161
    115.0881	   1104.0001
    115.0893	    576.6284
    115.0904	      0.0000
    115.0916	      0.0000
    115.0928	      0.0000
    115.0939	      0.0000
    117.0583	      0.0000
    117.0595	      0.0000
    117.0607	      0.0000
    117.0619	      0.0000
    117.0631	    340.6657
    117.0643	    855.3597
    117.0655	   1410.8912
    117.0667	   1644.8324
    117.0679	   1376.5248
    117.0691	    793.4890
    117.0703	    280.9372
    117.0714	      0.0000
    117.0726	      0.0000
    117.0738	      0.0000
    117.0750	      0.0000
    120.0667	      0.0000
    120.0679	      0.0000
    120.0692	      0.0000
    120.0704	      0.0000
    120.0717	    254.3563
    120.0729	   1398.1431
    120.0742	    713.8322
    120.0754	    782.2331
    120.0767	   1955.6421
    120.0779	   6971.9146
    120.0792	  16033.1836
    120.0804	  25873.9121
    120.0817	  28306.6094
    120.0829	  19148.0488
    120.0842	   9798.0557
    120.0854	   2648.1106
    120.0867	    632.8167
    120.0879	      0.0000
    120.0891	      0.0000
    120.0904	      0.0000
    120.0916	      0.0000
    121.0763	      0.0000
    121.0776	      0.0000
    121.0788	      0.0000
    121.0801	      0.0000
    121.0814	    427.5789
    121.0826	   1030.5439
    121.0839	   1547.2656
    121.0852	   1580.0267
    121.0864	   1111.9246
    121.0877	    502.2437
    121.0890	      0.0000
    121.0902	      0.0000
    121.0915	      0.0000
    121.0927	      0.0000
    122.0642	      0.0000
    122.0655	      0.0000
    122.0668	      0.0000
    122.0681	      0.0000
    122.0693	    590.6517
    122.0706	    945.1405
    122.0719	   1117.9692
    122.0732	   1004.0991
    122.0745	    673.8373
    122.0757	    327.7774
    122.0769	      0.0000
    122.0782	      0.0000
    122.0794	      0.0000
    122.0807	      0.0000
    129.0926	      0.0000
    129.0940	      0.0000
    129.0954	      0.0000
    129.0968	      0.0000
    129.0982	    620.0251
    129.0996	   2741.4360
    129.1010	   5334.2446
    129.1024	   7766.4351
    129.1038	   6853.5903
    129.1052	   4149.6890
    129.1065	   1677.4381
    129.1079	    372.3347
    129.1094	      0.0000
    129.1108	      0.0000
    129.1121	      0.0000
    129.1135	      0.0000
    132.0690	      0.0000
    132.0704	      0.0000
    132.0719	      0.0000
    132.0733	      0.0000
    132.0748	    321.4186
    132.0762	    699.6335
    132.0776	    972.0779
    132.0791	    960.8167
    132.0805	    686.5934
    132.0820	    332.0948
    132.0834	      0.0000
    132.0848	      0.0000
    132.0863	      0.0000
    132.0877	      0.0000
    133.0345	      0.0000
    133.0360	      0.0000
    133.0374	      0.0000
    133.0389	      0.0000
    133.0403	    477.8759
    133.0418	    849.7656
    133.0433	   1031.9753
    133.0447	    876.5274
    133.0462	    479.9387
    133.0476	      0.0000
    133.0490	      0.0000
    133.0505	      0.0000
    133.0520	      0.0000
    135.5692	      0.0000
    135.5707	      0.0000
    135.5722	      0.0000
    135.5737	      0.0000
    135.5752	    391.2733
    135.5767	    669.4026
    135.5782	    803.0281
    135.5797	    711.0740
    135.5812	    459.9055
    135.5830	      0.0000
    135.5845	      0.0000
    135.5860	      0.0000
    135.5875	      0.0000
    136.0649	      0.0000
    136.0665	      0.0000
    136.0680	      0.0000
    136.0695	      0.0000
    136.0710	    374.5986
    136.0725	   1691.6990
    136.0740	   4018.8992
    136.0755	   6511.3413
    136.0770	   6764.1274
    136.0785	   4339.7861
    136.0800	   1986.6520
    136.0815	    350.5917
    136.0827	    115.9710
    136.0842	    895.6317
    136.0857	    943.4257
    136.0872	    661.0533
    136.0887	    275.1706
    136.0902	      0.0000
    136.0917	      0.0000
    136.0932	      0.0000
    136.0947	      0.0000
    141.0783	      0.0000
    141.0799	      0.0000
    141.0815	      0.0000
    141.0831	      0.0000
    141.0847	    617.9308
    141.0863	   1426.8235
    141.0879	   2961.6736
    141.0895	   3508.2251
    141.0910	   2393.6379
    141.0926	   1150.5685
    141.0942	    494.0242
    141.0958	      0.0000
    141.0974	      0.0000
    141.0990	    526.8157
    141.1006	    683.9003
    141.1022	    745.9254
    141.1038	    651.8439
    141.1054	    404.3001
    141.1070	      0.0000
    141.1086	      0.0000
    141.1102	      0.0000
    141.1118	      0.0000
    143.1091	      0.0000
    143.1107	      0.0000
    143.1124	      0.0000
    143.1140	      0.0000
    143.1156	    468.4894
    143.1172	    976.5716
    143.1189	   1303.5520
    143.1205	   1213.1007
    143.1221	    782.1945
    143.1237	    309.9667
    143.1253	      0.0000
    143.1270	      0.0000
    143.1286	      0.0000
    143.1302	      0.0000
    145.0398	      0.0000
    145.0414	      0.0000
    145.0431	      0.0000
    145.0447	      0.0000
    145.0464	    377.6869
    145.0480	    705.3876
    145.0497	    895.3362
    145.0514	    791.4642
    145.0530	    468.5643
    145.0547	      0.0000
    145.0563	    584.2307
    145.0580	   1367.2504
    145.0596	   2860.6072
    145.0613	   3366.7097
    145.0630	   1870.6826
    145.0646	   1033.0627
    145.0663	    385.1331
    145.0679	      0.0000
    145.0696	      0.0000
    145.0712	      0.0000
    145.0729	      0.0000
    153.0588	      0.0000
    153.0606	      0.0000
    153.0624	      0.0000
    153.0642	      0.0000
    153.0660	    581.8979
    153.0678	    910.7054
    153.0696	    983.8320
    153.0714	    733.7488
    153.0732	    337.3898
    153.0750	      0.0000
    153.0768	      0.0000
    153.0786	      0.0000
    153.0804	      0.0000
    155.1070	      0.0000
    155.1088	      0.0000
    155.1107	      0.0000
    155.1125	      0.0000
    155.1143	    281.5070
    155.1162	    683.2426
    155.1180	   1001.9541
    155.1198	   1005.4843
    155.1217	    677.8991
    155.1235	    252.7172
    155.1255	      0.0000
    155.1273	      0.0000
    155.1291	      0.0000
    155.1310	      0.0000
    156.0607	      0.0000
    156.0625	      0.0000
    156.0644	      0.0000
    156.0662	      0.0000
    156.0681	    505.5280
    156.0699	   1407.3506
    156.0718	   5010.0596
    156.0736	  14766.7695
    156.0755	  25119.0449
    156.0773	  32320.1270
    156.0792	  24928.9297
    156.0810	  14519.0527
    156.0829	   4689.6455
    156.0847	   1038.5928
    156.0866	    145.7194
    156.0883	      0.0000
    156.0902	      0.0000
    156.0920	      0.0000
    156.0939	      0.0000
    157.0677	      0.0000
    157.0696	      0.0000
    157.0715	      0.0000
    157.0733	      0.0000
    157.0752	    408.4981
    157.0771	   1184.5870
    157.0789	   3514.3511
    157.0808	   7146.9263
    157.0827	  11031.4717
    157.0845	  11330.0068
    157.0864	   7351.5186
    157.0883	   3582.6152
    157.0901	    698.8298
    157.0920	      0.0000
    157.0939	    614.4055
    157.0957	   1584.4264
    157.0976	   1839.6222
    157.0995	   1235.9944
    157.1014	    585.9047
    157.1032	      0.0000
    157.1051	      0.0000
    157.1070	      0.0000
    157.1088	      0.0000
    165.0406	      0.0000
    165.0426	      0.0000
    165.0446	      0.0000
    165.0467	      0.0000
    165.0487	    384.9678
    165.0507	   1114.1018
    165.0527	   2722.9187
    165.0547	   3809.8645
    165.0567	   3153.0776
    165.0587	   1797.2676
    165.0607	    679.5990
    165.0627	      0.0000
    165.0647	      0.0000
    165.0668	      0.0000
    165.0688	      0.0000
    166.0752	      0.0000
    166.0772	      0.0000
    166.0792	      0.0000
    166.0812	      0.0000
    166.0833	    391.5664
    166.0853	    846.7632
    166.0873	   1121.2261
    166.0894	   1021.4548
    166.0914	    651.2491
    166.0935	      0.0000
    166.0955	      0.0000
    166.0975	      0.0000
    166.0996	      0.0000
    173.0475	      0.0000
    173.0497	      0.0000
    173.0518	      0.0000
    173.0540	      0.0000
    173.0562	    419.1348
    173.0583	    733.8763
    173.0605	    914.8126
    173.0626	    832.3154
    173.0648	    531.8730
    173.0674	      0.0000
    173.0696	      0.0000
    173.0718	      0.0000
    173.0739	      0.0000
    174.9749	      0.0000
    174.9771	      0.0000
    174.9793	      0.0000
    174.9815	      0.0000
    174.9837	    108.3315
    174.9859	   1056.6324
    174.9881	   3633.2971
    174.9903	   6965.0444
    174.9925	  10266.9258
    174.9947	   9521.0957
    174.9969	   5905.9380
    174.9991	   2548.4526
    175.0013	    466.5350
    175.0029	      0.0000
    175.0051	      0.0000
    175.0073	      0.0000
    175.0095	      0.0000
    178.0461	      0.0000
    178.0484	      0.0000
    178.0506	      0.0000
    178.0529	      0.0000
    178.0551	    493.1624
    178.0574	    825.0647
    178.0596	   1028.8798
    178.0619	    963.2838
    178.0642	    647.0717
    178.0664	      0.0000
    178.0686	      0.0000
    178.0709	      0.0000
    178.0731	      0.0000
    181.0954	      0.0000
    181.0977	      0.0000
    181.1000	      0.0000
    181.1023	      0.0000
    181.1046	    347.4618
    181.1069	    790.8710
    181.1093	   1012.0328
    181.1116	    814.3260
    181.1139	    375.1630
    181.1163	      0.0000
    181.1186	      0.0000
    181.1209	      0.0000
    181.1232	      0.0000
    182.0656	      0.0000
    182.0679	      0.0000
    182.0703	      0.0000
    182.0726	      0.0000
    182.0749	    714.0272
    182.0773	   2003.4840
    182.0796	   3579.7417
    182.0819	   4689.3687
    182.0843	   3693.0671
    182.0866	   2173.8601
    182.0889	    604.3790
    182.0912	      0.0000
    182.0936	      0.0000
    182.0959	      0.0000
    182.0982	      0.0000
    183.8945	      0.0000
    183.8969	      0.0000
    183.8993	      0.0000
    183.9016	      0.0000
    183.9040	    343.7912
    183.9063	    879.3475
    183.9087	   1619.3475
    183.9111	   3572.6638
    183.9134	   3768.9839
    183.9158	   1812.0994
    183.9182	   1068.7961
    183.9205	    462.7816
    183.9229	      0.0000
    183.9252	      0.0000
    183.9276	      0.0000
    183.9300	      0.0000
    188.5536	      0.0000
    188.5560	      0.0000
    188.5585	      0.0000
    188.5609	      0.0000
    188.5634	    437.0465
    188.5659	    894.1744
    188.5683	   1195.6549
    188.5708	   1130.1035
    188.5732	    738.9861
    188.5757	    300.4940
    188.5782	      0.0000
    188.5807	      0.0000
    188.5831	      0.0000
    188.5856	      0.0000
    191.0989	      0.0000
    191.1014	      0.0000
    191.1039	      0.0000
    191.1064	      0.0000
    191.1089	    623.9743
    191.1114	   2595.7700
    191.1139	   6704.1885
    191.1164	  11194.3906
    191.1189	  13120.9541
    191.1214	   9274.7295
    191.1239	   4982.4668
    191.1264	   1325.1187
    191.1289	    129.9436
    191.1314	      0.0000
    191.1339	      0.0000
    191.1365	      0.0000
    191.1390	      0.0000
    194.7667	      0.0000
    194.7693	      0.0000
    194.7718	      0.0000
    194.7744	      0.0000
    194.7770	    642.7776
    194.7796	    993.6927
    194.7821	   1101.1936
    194.7847	    906.8985
    194.7873	    540.8870
    194.7899	      0.0000
    194.7924	      0.0000
    194.7950	      0.0000
    194.7976	      0.0000
    200.1187	      0.0000
    200.1214	      0.0000
    200.1241	      0.0000
    200.1267	      0.0000
    200.1294	    259.2418
    200.1321	    828.7116
    200.1348	   2500.8958
    200.1375	   4246.3496
    200.1402	   5164.0566
    200.1429	   3780.8567
    200.1455	   2094.5205
    200.1482	    557.0244
    200.1509	      0.0000
    200.1536	      0.0000
    200.1563	      0.0000
    200.1590	      0.0000
    201.9055	      0.0000
    201.9082	      0.0000
    201.9110	      0.0000
    201.9137	      0.0000
    201.9164	    316.0948
    201.9191	    780.7592
    201.9219	   1150.1503
    201.9246	   1122.5131
    201.9273	    719.3612
    201.9301	      0.0000
    201.9328	      0.0000
    201.9356	      0.0000
    201.9383	      0.0000
    203.5594	      0.0000
    203.5621	      0.0000
    203.5649	      0.0000
    203.5676	      0.0000
    203.5704	    638.2031
    203.5732	   1078.0505
    203.5759	   1168.5452
    203.5787	    834.9620
    203.5814	    347.0286
    203.5842	      0.0000
    203.5869	      0.0000
    203.5897	      0.0000
    203.5924	      0.0000
    208.0539	      0.0000
    208.0568	      0.0000
    208.0596	      0.0000
    208.0625	      0.0000
    208.0653	    314.6592
    208.0682	    791.1346
    208.0710	   1175.8706
    208.0739	   1195.5565
    208.0767	    851.9410
    208.0796	    404.2935
    208.0824	      0.0000
    208.0852	      0.0000
    208.0881	      0.0000
    208.0909	      0.0000
    209.0595	      0.0000
    209.0624	      0.0000
    209.0653	      0.0000
    209.0682	      0.0000
    209.0710	    283.2073
    209.0739	    798.4102
    209.0768	   1273.7211
    209.0796	   1365.5061
    209.0825	   1005.4370
    209.0854	    485.0810
    209.0882	      0.0000
    209.0911	      0.0000
    209.0939	      0.0000
    209.0968	      0.0000
    213.0791	      0.0000
    213.0820	      0.0000
    213.0850	      0.0000
    213.0879	      0.0000
    213.0909	    434.1802
    213.0938	    978.2171
    213.0968	   1418.0746
    213.0997	   1468.5770
    213.1027	   1123.8096
    213.1056	    635.7677
    213.1086	      0.0000
    213.1115	      0.0000
    213.1145	      0.0000
    213.1174	    492.3140
    213.1204	    794.9864
    213.1233	    949.0414
    213.1263	    822.7213
    213.1292	    481.0149
    213.1323	      0.0000
    213.1352	      0.0000
    213.1382	      0.0000
    213.1411	      0.0000
    216.5825	      0.0000
    216.5855	      0.0000
    216.5885	      0.0000
    216.5916	      0.0000
    216.5946	    554.8269
    216.5976	    940.2751
    216.6006	   1049.5282
    216.6037	    799.3537
    216.6067	    368.6684
    216.6097	      0.0000
    216.6127	      0.0000
    216.6158	      0.0000
    216.6188	      0.0000
    218.8495	      0.0000
    218.8526	      0.0000
    218.8557	      0.0000
    218.8587	      0.0000
    218.8618	    352.4841
    218.8649	    763.5010
    218.8679	   1079.4480
    218.8710	   1109.2482
    218.8741	    843.1646
    218.8772	    451.2859
    218.8802	      0.0000
    218.8833	      0.0000
    218.8864	      0.0000
    218.8894	      0.0000
    219.0954	      0.0000
    219.0985	      0.0000
    219.1016	      0.0000
    219.1046	      0.0000
    219.1077	    425.3652
    219.1108	    940.9445
    219.1139	   1301.2675
    219.1169	   1235.7385
    219.1200	    793.5773
    219.1231	    296.0386
    219.1261	      0.0000
    219.1292	      0.0000
    219.1322	      0.0000
    219.1353	      0.0000
    225.0719	      0.0000
    225.0751	      0.0000
    225.0783	      0.0000
    225.0815	      0.0000
    225.0847	    329.8816
    225.0879	    972.4263
    225.0911	   3688.4849
    225.0943	   7647.4580
    225.0975	  11694.3027
    225.1007	  11147.4238
    225.1039	   6927.7324
    225.1071	   3041.6748
    225.1103	    724.8907
    225.1135	      0.0000
    225.1168	      0.0000
    225.1200	      0.0000
    225.1232	      0.0000
    225.5852	      0.0000
    225.5885	      0.0000
    225.5917	      0.0000
    225.5949	      0.0000
    225.5981	    488.3420
    225.6013	    980.6333
    225.6045	   1375.7024
    225.6077	   1397.1526
    225.6110	   1001.3044
    225.6142	    453.2088
    225.6174	      0.0000
    225.6206	      0.0000
    225.6238	      0.0000
    225.6270	      0.0000
    226.0810	      0.0000
    226.0842	      0.0000
    226.0874	      0.0000
    226.0907	      0.0000
    226.0939	    441.3987
    226.0971	   1107.0898
    226.1003	   1759.2111
    226.1036	   1957.1356
    226.1068	   1557.4330
    226.1100	    853.6604
    226.1132	    281.2151
    226.1166	      0.0000
    226.1198	      0.0000
    226.1230	      0.0000
    226.1262	      0.0000
    243.0796	      0.0000
    243.0832	      0.0000
    243.0868	      0.0000
    243.0904	      0.0000
    243.0940	    377.2281
    243.0976	   1617.8488
    243.1012	   6007.2671
    243.1048	  11396.1064
    243.1084	  16417.5801
    243.1120	  14391.6289
    243.1156	   8705.5684
    243.1192	   3492.8093
    243.1228	    782.2070
    243.1264	    123.3451
    243.1300	      0.0000
    243.1336	      0.0000
    243.1372	      0.0000
    243.1408	      0.0000
    245.0944	      0.0000
    245.0981	      0.0000
    245.1017	      0.0000
    245.1053	      0.0000
    245.1090	    456.0098
    245.1126	    863.9185
    245.1163	    994.5019
    245.1199	    771.5634
    245.1235	    387.9953
    245.1272	      0.0000
    245.1308	      0.0000
    245.1344	      0.0000
    245.1381	      0.0000
    250.9290	      0.0000
    250.9327	      0.0000
    250.9365	      0.0000
