# ljz_20131022_MR_Chym1_ELUTE.mzML
#
# index: 1585
# id: controllerType=0 controllerNumber=1 scan=6912
# scanNumber: 6912
# massAnalyzerType: quadrupole
# scanEvent: 2
# msLevel: 2
# retentionTime: 1962.37
# filterString: FTMS + p NSI d Full ms2 530.75@hcd28.00 [100.00-1105.00]
# mzLow: 99.0036
# mzHigh: 1116.25
# basePeakMZ: 110.072
# basePeakIntensity: 115105
# totalIonCurrent: 1.34913e+006
# precursorCount: 1
# precursor 0: 530.747 1.53947e+006
# binary (2215): 
     99.0036	      0.0000
     99.0045	      0.0000
     99.0055	      0.0000
     99.0064	      0.0000
    102.2126	      0.0000
    102.2136	      0.0000
    102.2146	      0.0000
    102.2156	      0.0000
    102.2165	    512.2053
    102.2175	    875.6112
    102.2185	   1038.1039
    102.2195	    889.6267
    102.2205	    517.0963
    102.2214	      0.0000
    102.2223	      0.0000
    102.2233	      0.0000
    102.2243	      0.0000
    110.0582	      0.0000
    110.0593	      0.0000
    110.0604	      0.0000
    110.0615	      0.0000
    110.0626	      0.0000
    110.0637	      0.0000
    110.0648	      0.0000
    110.0662	   3209.9333
    110.0673	   5680.1069
    110.0684	  14342.5967
    110.0695	  42163.9531
    110.0706	  78544.0156
    110.0717	 113610.0313
    110.0728	 102134.5313
    110.0739	  62391.7266
    110.0750	  25420.4297
    110.0761	   5037.9868
    110.0772	    634.4355
    110.0780	      0.0000
    110.0791	      0.0000
    110.0802	   1660.7644
    110.0813	    225.2552
    110.0823	      0.0000
    110.0834	      0.0000
    110.0845	      0.0000
    110.0856	      0.0000
    111.0672	      0.0000
    111.0683	      0.0000
    111.0695	      0.0000
    111.0706	      0.0000
    111.0717	    455.3887
    111.0728	   1563.4379
    111.0739	   4401.7461
    111.0750	   5341.7070
    111.0761	   3723.8440
    111.0772	   1771.3615
    111.0783	      0.0000
    111.0794	      0.0000
    111.0805	      0.0000
    111.0816	      0.0000
    111.0827	      0.0000
    115.0436	      0.0000
    115.0448	      0.0000
    115.0459	      0.0000
    115.0471	      0.0000
    115.0483	    651.0181
    115.0494	   1115.8386
    115.0506	   1336.7708
    115.0518	   1162.2725
    115.0529	    738.0772
    115.0541	      0.0000
    115.0553	      0.0000
    115.0565	      0.0000
    115.0576	      0.0000
    115.0799	      0.0000
    115.0810	      0.0000
    115.0822	      0.0000
    115.0834	      0.0000
    115.0846	    859.6026
    115.0857	   1484.1245
    115.0869	   1744.1398
    115.0881	   1459.3649
    115.0892	    862.5259
    115.0903	      0.0000
    115.0915	      0.0000
    115.0927	      0.0000
    115.0938	      0.0000
    126.0466	      0.0000
    126.0479	      0.0000
    126.0492	      0.0000
    126.0506	      0.0000
    126.0519	    554.9352
    126.0533	   1230.9351
    126.0546	   1717.8647
    126.0560	   1650.8203
    126.0573	   1094.9075
    126.0586	    459.0427
    126.0600	      0.0000
    126.0613	      0.0000
    126.0626	      0.0000
    126.0640	      0.0000
    129.0579	      0.0000
    129.0593	      0.0000
    129.0607	      0.0000
    129.0621	      0.0000
    129.0635	    615.1377
    129.0649	   1130.8804
    129.0663	   1283.7156
    129.0676	    960.5026
    129.0690	    440.9749
    129.0707	      0.0000
    129.0721	      0.0000
    129.0735	      0.0000
    129.0749	      0.0000
    129.0916	      0.0000
    129.0930	      0.0000
    129.0943	      0.0000
    129.0957	      0.0000
    129.0971	    380.7462
    129.0985	   1013.7792
    129.0999	   3498.9651
    129.1013	   6580.7856
    129.1027	   9420.8564
    129.1041	   8082.7949
    129.1055	   4668.1646
    129.1069	   1513.6912
    129.1083	      0.0000
    129.1093	      0.0000
    129.1107	      0.0000
    129.1121	      0.0000
    129.1135	      0.0000
    132.9676	      0.0000
    132.9690	      0.0000
    132.9705	      0.0000
    132.9719	      0.0000
    132.9734	    598.3819
    132.9749	   1548.1199
    132.9763	   3605.4104
    132.9778	   5058.8154
    132.9792	   4195.4551
    132.9807	   2442.2590
    132.9821	    846.2219
    132.9835	      0.0000
    132.9850	      0.0000
    132.9865	      0.0000
    132.9879	      0.0000
    136.0782	      0.0000
    136.0797	      0.0000
    136.0812	      0.0000
    136.0827	      0.0000
    136.0842	    810.9672
    136.0857	   1203.2421
    136.0872	   1273.0955
    136.0887	    979.9730
    136.0902	    513.8347
    136.0917	      0.0000
    136.0932	      0.0000
    136.0947	      0.0000
    136.0962	      0.0000
    138.0446	      0.0000
    138.0462	      0.0000
    138.0477	      0.0000
    138.0492	      0.0000
    138.0508	    679.9078
    138.0523	   1431.0752
    138.0538	   2176.3972
    138.0554	   2423.6794
    138.0569	   1973.5995
    138.0585	   1125.2058
    138.0600	    425.6274
    138.0617	      0.0000
    138.0633	      0.0000
    138.0648	      0.0000
    138.0663	      0.0000
    150.9754	      0.0000
    150.9772	      0.0000
    150.9789	      0.0000
    150.9807	      0.0000
    150.9824	    743.3662
    150.9842	   2764.9734
    150.9859	   6071.2393
    150.9877	   9547.6309
    150.9895	   9506.9453
    150.9912	   5901.2539
    150.9930	   2476.4229
    150.9947	    405.1382
    150.9963	      0.0000
    150.9981	      0.0000
    150.9999	      0.0000
    151.0016	      0.0000
    152.0704	      0.0000
    152.0721	      0.0000
    152.0739	      0.0000
    152.0757	      0.0000
    152.0775	    325.3969
    152.0792	   1036.6539
    152.0810	   1847.5968
    152.0828	   2149.7690
    152.0846	   1737.9731
    152.0864	    973.5394
    152.0881	    398.4719
    152.0899	      0.0000
    152.0917	      0.0000
    152.0935	      0.0000
    152.0952	      0.0000
    152.9726	      0.0000
    152.9744	      0.0000
    152.9762	      0.0000
    152.9780	      0.0000
    152.9798	    847.1208
    152.9816	   1813.8384
    152.9834	   2619.6519
    152.9852	   2702.4661
    152.9870	   2000.4126
    152.9888	   1019.3151
    152.9906	    343.5377
    152.9927	      0.0000
    152.9945	      0.0000
    152.9962	      0.0000
    152.9980	      0.0000
    156.0571	      0.0000
    156.0590	      0.0000
    156.0608	      0.0000
    156.0627	      0.0000
    156.0645	      0.0000
    156.0664	   1075.5112
    156.0682	   2302.0398
    156.0701	   6534.9028
    156.0719	  21155.0977
    156.0738	  54038.8906
    156.0756	  90000.9453
    156.0775	 108969.6016
    156.0793	  79834.8359
    156.0812	  44498.8750
    156.0830	  12885.7334
    156.0849	   2396.5588
    156.0867	    773.5785
    156.0883	      0.0000
    156.0902	      0.0000
    156.0920	      0.0000
    156.0939	      0.0000
    157.0659	      0.0000
    157.0677	      0.0000
    157.0696	      0.0000
    157.0715	      0.0000
    157.0733	    585.0732
    157.0752	   1964.3080
    157.0771	   4304.5986
    157.0789	   6825.0146
    157.0808	   7704.9990
    157.0827	   5452.0737
    157.0845	   2890.4089
    157.0864	    609.7676
    157.0882	      0.0000
    157.0901	      0.0000
    157.0920	      0.0000
    157.0938	      0.0000
    163.0851	      0.0000
    163.0871	      0.0000
    163.0891	      0.0000
    163.0911	      0.0000
    163.0931	    495.9479
    163.0950	   1055.9609
    163.0970	   1456.5955
    163.0990	   1414.3624
    163.1010	    956.8267
    163.1029	    402.1962
    163.1050	      0.0000
    163.1069	      0.0000
    163.1089	      0.0000
    163.1109	      0.0000
    167.0682	      0.0000
    167.0703	      0.0000
    167.0723	      0.0000
    167.0744	      0.0000
    167.0764	      0.0000
    167.0785	      0.0000
    167.0805	      0.0000
    167.0829	   1222.2966
    167.0849	   2487.8464
    167.0870	   7658.7153
    167.0890	  23092.2578
    167.0911	  40603.2773
    167.0931	  54694.9414
    167.0952	  44285.7227
    167.0972	  26029.4414
    167.0993	   8880.2275
    167.1013	   1578.5076
    167.1034	     41.9132
    167.1051	      0.0000
    167.1071	      0.0000
    167.1092	      0.0000
    167.1112	      0.0000
    168.0826	      0.0000
    168.0847	      0.0000
    168.0868	      0.0000
    168.0888	      0.0000
    168.0909	    501.0857
    168.0930	   1030.0085
    168.0950	   1489.7228
    168.0971	   1577.2123
    168.0992	   1214.3087
    168.1012	    635.6987
    168.1033	      0.0000
    168.1054	      0.0000
    168.1074	      0.0000
    168.1095	      0.0000
    169.0479	      0.0000
    169.0500	      0.0000
    169.0521	      0.0000
    169.0542	      0.0000
    169.0563	    603.8040
    169.0583	   1152.3887
    169.0604	   1482.0385
    169.0625	   1352.2556
    169.0646	    859.4429
    169.0667	      0.0000
    169.0688	      0.0000
    169.0709	      0.0000
    169.0730	      0.0000
    173.0777	      0.0000
    173.0799	      0.0000
    173.0821	      0.0000
    173.0842	      0.0000
    173.0864	    427.8336
    173.0885	    909.6411
    173.0907	   1266.3623
    173.0929	   1265.3861
    173.0950	    895.9537
    173.0972	    393.4633
    173.0993	      0.0000
    173.1015	      0.0000
    173.1036	      0.0000
    173.1058	      0.0000
    177.0252	      0.0000
    177.0274	      0.0000
    177.0297	      0.0000
    177.0319	      0.0000
    177.0341	    516.7692
    177.0364	   1325.0416
    177.0386	   2148.0901
    177.0408	   2453.5857
    177.0431	   2062.7163
    177.0453	   1277.4581
    177.0475	    563.1292
    177.0498	      0.0000
    177.0520	      0.0000
    177.0542	      0.0000
    177.0565	      0.0000
    179.0304	      0.0000
    179.0327	      0.0000
    179.0350	      0.0000
    179.0373	      0.0000
    179.0395	    785.1498
    179.0418	   1483.4873
    179.0441	   1941.5000
    179.0463	   1836.9326
    179.0486	   1238.4742
    179.0509	    557.3749
    179.0532	      0.0000
    179.0554	      0.0000
    179.0577	      0.0000
    179.0600	      0.0000
    179.0759	      0.0000
    179.0782	      0.0000
    179.0804	      0.0000
    179.0827	      0.0000
    179.0850	    421.5908
    179.0873	   1206.6327
    179.0895	   3156.5422
    179.0918	   5130.4497
    179.0941	   5413.8301
    179.0963	   3476.1304
    179.0986	   1600.4631
    179.1009	    644.9115
    179.1032	      0.0000
    179.1054	      0.0000
    179.1077	      0.0000
    179.1100	      0.0000
    181.0908	      0.0000
    181.0931	      0.0000
    181.0954	      0.0000
    181.0977	      0.0000
    181.1000	    447.9760
    181.1023	   1272.4592
    181.1046	   3676.1335
    181.1069	   6332.5688
    181.1092	   7819.6094
    181.1116	   5676.1646
    181.1139	   3019.9626
    181.1162	    754.4039
    181.1186	      0.0000
    181.1209	      0.0000
    181.1232	      0.0000
    181.1255	      0.0000
    184.0460	      0.0000
    184.0484	      0.0000
    184.0507	      0.0000
    184.0531	      0.0000
    184.0555	    662.0198
    184.0578	   1201.6694
    184.0602	   1538.4495
    184.0626	   1414.9822
    184.0649	    905.8574
    184.0673	    341.8974
    184.0704	      0.0000
    184.0728	      0.0000
    184.0751	      0.0000
    184.0775	      0.0000
    197.0352	      0.0000
    197.0379	      0.0000
    197.0405	      0.0000
    197.0431	      0.0000
    197.0457	    451.6476
    197.0484	   2076.6208
    197.0510	   6132.0522
    197.0536	  10934.6045
    197.0562	  15149.4990
    197.0588	  12940.5117
    197.0615	   7724.9365
    197.0641	   2882.8945
    197.0667	    337.1570
    197.0686	      0.0000
    197.0713	      0.0000
    197.0739	      0.0000
    197.0765	      0.0000
    197.0844	      0.0000
    197.0870	      0.0000
    197.0896	      0.0000
    197.0922	      0.0000
    197.0949	    407.2694
    197.0975	   1203.7040
    197.1001	   2321.9734
    197.1027	   4630.6484
    197.1054	   4109.4468
    197.1080	   2360.0823
    197.1106	    965.3199
    197.1132	    345.3379
    197.1158	      0.0000
    197.1185	      0.0000
    197.1211	      0.0000
    197.1237	      0.0000
    201.1051	      0.0000
    201.1078	      0.0000
    201.1105	      0.0000
    201.1132	      0.0000
    201.1159	    419.0868
    201.1186	   1199.0033
    201.1213	   2041.0535
    201.1241	   2361.0029
    201.1268	   1920.0282
    201.1295	   1066.6915
    201.1322	    386.1385
    201.1349	      0.0000
    201.1376	      0.0000
    201.1403	      0.0000
    201.1431	      0.0000
    207.0697	      0.0000
    207.0725	      0.0000
    207.0753	      0.0000
    207.0781	      0.0000
    207.0810	    707.4555
    207.0838	   1526.6360
    207.0866	   2074.0020
    207.0895	   1904.1455
    207.0923	   1155.3380
    207.0951	    395.7311
    207.0979	      0.0000
    207.1008	      0.0000
    207.1036	      0.0000
    207.1064	      0.0000
    209.0853	      0.0000
    209.0882	      0.0000
    209.0911	      0.0000
    209.0939	      0.0000
    209.0968	    798.1327
    209.0997	   1639.5439
    209.1025	   2363.7896
    209.1054	   2478.0242
    209.1083	   1882.4907
    209.1112	    993.2094
    209.1140	    356.4955
    209.1171	      0.0000
    209.1200	      0.0000
    209.1229	      0.0000
    209.1257	      0.0000
    213.0646	      0.0000
    213.0675	      0.0000
    213.0705	      0.0000
    213.0734	      0.0000
    213.0764	    720.3832
    213.0793	   1191.4319
    213.0823	   2541.0845
    213.0852	   3477.7747
    213.0882	   8387.7842
    213.0911	  26975.8750
    213.0941	  57422.5625
    213.0970	  90215.1406
    213.1000	  93862.2266
    213.1029	  61571.4648
    213.1059	  30196.4980
    213.1088	   7702.9604
    213.1118	   1705.3389
    213.1148	   1433.8473
    213.1177	   1101.6274
    213.1204	   1943.0967
    213.1233	     55.2352
    213.1263	      0.0000
    213.1292	      0.0000
    213.1322	      0.0000
    213.1351	      0.0000
    214.0768	      0.0000
    214.0798	      0.0000
    214.0827	      0.0000
    214.0857	      0.0000
    214.0887	    415.4119
    214.0917	   1081.3177
    214.0946	   3252.0220
    214.0976	   5628.7915
    214.1006	   7539.4883
    214.1035	   6336.4790
    214.1065	   3793.4983
    214.1095	   1397.7133
    214.1125	    595.5253
    214.1155	      0.0000
    214.1185	      0.0000
    214.1215	      0.0000
    214.1244	      0.0000
    220.1017	      0.0000
    220.1048	      0.0000
    220.1079	      0.0000
    220.1109	      0.0000
    220.1140	    835.2132
    220.1171	   1192.6621
    220.1202	   1226.7030
    220.1233	    925.9860
    220.1264	    493.2065
    220.1295	      0.0000
    220.1326	      0.0000
    220.1357	      0.0000
    220.1388	      0.0000
    225.0207	      0.0000
    225.0239	      0.0000
    225.0271	      0.0000
    225.0303	      0.0000
    225.0335	    494.2959
    225.0367	   1327.6072
    225.0399	   2388.9272
    225.0431	   4017.4133
    225.0463	   2517.4094
    225.0495	   1467.2991
    225.0527	    551.2305
    225.0565	      0.0000
    225.0597	      0.0000
    225.0629	      0.0000
    225.0661	      0.0000
    225.0693	      0.0000
    225.0725	      0.0000
    225.0757	      0.0000
    225.0789	      0.0000
    225.0821	    608.3590
    225.0853	   1082.7976
    225.0885	   3386.1453
    225.0917	  10633.5723
    225.0950	  20015.9922
    225.0982	  28911.8887
    225.1014	  25773.9766
    225.1046	  15725.2168
    225.1078	   6327.8159
    225.1110	   1233.7759
    225.1142	    183.8921
    225.1168	      0.0000
    225.1200	      0.0000
    225.1232	      0.0000
    225.1264	      0.0000
    229.0967	      0.0000
    229.1000	      0.0000
    229.1033	      0.0000
    229.1066	      0.0000
    229.1099	    574.8953
    229.1132	   1238.5515
    229.1165	   1726.3888
    229.1197	   1676.3625
    229.1230	   1135.3883
    229.1263	    498.7885
    229.1296	      0.0000
    229.1329	      0.0000
    229.1362	      0.0000
    229.1395	      0.0000
    231.1130	      0.0000
    231.1163	      0.0000
    231.1197	      0.0000
    231.1230	      0.0000
    231.1263	    353.2574
    231.1297	    898.9135
    231.1330	   1323.6704
    231.1363	   1329.0576
    231.1397	    928.7437
    231.1430	    420.1059
    231.1463	      0.0000
    231.1496	      0.0000
    231.1530	      0.0000
    231.1563	      0.0000
    239.0748	      0.0000
    239.0783	      0.0000
    239.0818	      0.0000
    239.0853	      0.0000
    239.0888	    477.6410
    239.0923	   1011.9693
    239.0958	   1373.9805
    239.0993	   1309.0020
    239.1028	    877.9074
    239.1070	      0.0000
    239.1105	      0.0000
    239.1140	      0.0000
    239.1175	      0.0000
    243.0766	      0.0000
    243.0802	      0.0000
    243.0838	      0.0000
    243.0874	      0.0000
    243.0910	    689.8225
    243.0946	   1504.6759
    243.0982	   4459.3306
    243.1018	  13704.1826
    243.1054	  25137.5957
    243.1090	  35424.7969
    243.1126	  30611.2676
    243.1162	  18513.6855
    243.1198	   7236.1299
    243.1234	   1623.6929
    243.1270	    353.1286
    243.1300	      0.0000
    243.1336	      0.0000
    243.1372	      0.0000
    243.1408	      0.0000
    244.1074	      0.0000
    244.1110	      0.0000
    244.1147	      0.0000
    244.1183	      0.0000
    244.1219	    229.7022
    244.1255	    947.4371
    244.1291	   1587.5272
    244.1328	   1634.0499
    244.1364	   1079.3934
    244.1400	    414.6249
    244.1437	      0.0000
    244.1473	      0.0000
    244.1509	      0.0000
    244.1545	      0.0000
    258.1192	      0.0000
    258.1231	      0.0000
    258.1271	      0.0000
    258.1310	      0.0000
    258.1349	    469.6348
    258.1389	   1181.4381
    258.1428	   1780.3378
    258.1467	   1840.0532
    258.1507	   1331.7921
    258.1546	    630.3787
    258.1589	      0.0000
    258.1628	      0.0000
    258.1667	      0.0000
    258.1707	      0.0000
    282.0820	      0.0000
    282.0865	      0.0000
    282.0910	      0.0000
    282.0955	      0.0000
    282.1000	    302.2785
    282.1045	   1186.4565
    282.1089	   4588.5767
    282.1134	  10066.7520
    282.1179	  15917.7822
    282.1224	  16283.8896
    282.1269	  10450.3682
    282.1314	   4922.8701
    282.1359	   1077.2205
    282.1404	     67.9517
    282.1446	      0.0000
    282.1491	      0.0000
    282.1536	      0.0000
    282.1581	      0.0000
    283.0955	      0.0000
    283.1001	      0.0000
    283.1046	      0.0000
    283.1091	      0.0000
    283.1136	    765.1212
    283.1181	   1147.5060
    283.1227	   1227.3600
    283.1272	    973.5006
    283.1317	    561.4974
    283.1362	      0.0000
    283.1407	      0.0000
    283.1452	      0.0000
    283.1498	      0.0000
    288.0806	      0.0000
    288.0853	      0.0000
    288.0899	      0.0000
    288.0945	      0.0000
    288.0992	    793.7830
    288.1038	   1419.0667
    288.1084	   1840.5120
    288.1131	   1744.8940
    288.1177	   1182.9003
    288.1224	    537.6520
    288.1277	      0.0000
    288.1324	      0.0000
    288.1370	      0.0000
    288.1417	      0.0000
    300.0852	      0.0000
    300.0901	      0.0000
    300.0951	      0.0000
    300.1000	      0.0000
    300.1049	    891.9466
    300.1098	   1608.5405
    300.1148	   4889.4297
    300.1197	  15798.3838
    300.1246	  30500.0664
    300.1296	  45150.6250
    300.1345	  41841.6523
    300.1394	  25996.9746
    300.1444	  11360.6738
    300.1493	   2682.6555
    300.1542	    533.1000
    300.1585	      0.0000
    300.1635	      0.0000
    300.1684	      0.0000
    300.1733	      0.0000
    301.0979	      0.0000
    301.1029	      0.0000
    301.1078	      0.0000
    301.1128	      0.0000
    301.1178	    567.0688
    301.1227	   1271.6875
    301.1277	   1967.3859
    301.1326	   2254.7024
    301.1376	   1957.6685
    301.1425	   1277.2250
    301.1475	    599.4719
    301.1525	      0.0000
    301.1575	      0.0000
    301.1625	      0.0000
    301.1674	      0.0000
    326.1444	      0.0000
    326.1500	      0.0000
    326.1556	      0.0000
    326.1612	      0.0000
    326.1668	    561.4827
    326.1724	    972.4305
    326.1780	   1141.2605
    326.1836	    990.8078
    326.1891	    628.9591
    326.1947	      0.0000
    326.2003	      0.0000
    326.2059	    471.8471
