# ljz_20131022_MR_Chym1_ELUTE.mzML
#
# index: 4237
# id: controllerType=0 controllerNumber=1 scan=10354
# scanNumber: 10354
# massAnalyzerType: quadrupole
# scanEvent: 2
# msLevel: 2
# retentionTime: 2582.98
# filterString: FTMS + p NSI d Full ms2 622.35@hcd28.00 [100.00-1290.00]
# mzLow: 99.0036
# mzHigh: 1303.16
# basePeakMZ: 101.072
# basePeakIntensity: 977253
# totalIonCurrent: 1.27262e+007
# precursorCount: 1
# precursor 0: 622.348 1.21248e+007
# binary (4980): 
     99.0036	      0.0000
     99.0045	      0.0000
     99.0054	      0.0000
     99.0064	      0.0000
    101.0368	      0.0000
    101.0377	      0.0000
    101.0387	      0.0000
    101.0397	      0.0000
    101.0406	      0.0000
    101.0416	      0.0000
    101.0426	      0.0000
    101.0435	      0.0000
    101.0445	      0.0000
    101.0455	      0.0000
    101.0465	      0.0000
    101.0474	      0.0000
    101.0484	      0.0000
    101.0600	      0.0000
    101.0609	      0.0000
    101.0619	      0.0000
    101.0629	      0.0000
    101.0638	    454.8734
    101.0648	   6759.1147
    101.0657	  16517.7539
    101.0667	  21125.9160
    101.0677	  37177.7500
    101.0686	 119813.8047
    101.0696	 381083.0938
    101.0706	 693943.8750
    101.0715	 971538.5000
    101.0725	 832033.2500
    101.0735	 503417.1250
    101.0744	 199653.9531
    101.0754	  52149.8398
    101.0764	  16360.4854
    101.0773	  14912.2822
    101.0783	   6799.8140
    101.0792	   6941.9229
    101.0801	      0.0000
    101.0811	      0.0000
    101.0821	      0.0000
    101.0830	      0.0000
    101.0840	      0.0000
    101.0917	      0.0000
    101.0927	      0.0000
    101.0936	      0.0000
    101.0946	      0.0000
    101.0956	      0.0000
    101.0965	      0.0000
    101.0975	      0.0000
    101.0985	      0.0000
    101.0994	      0.0000
    101.1004	      0.0000
    101.1014	      0.0000
    101.1023	      0.0000
    101.1033	      0.0000
    101.8314	      0.0000
    101.8323	      0.0000
    101.8333	      0.0000
    101.8343	      0.0000
    101.8353	      0.0000
    101.8362	      0.0000
    101.8372	      0.0000
    101.8382	      0.0000
    101.8392	      0.0000
    101.8401	      0.0000
    101.8411	      0.0000
    101.8421	      0.0000
    101.8431	      0.0000
    101.8440	      0.0000
    102.0491	      0.0000
    102.0501	      0.0000
    102.0510	      0.0000
    102.0520	      0.0000
    102.0530	   1290.2000
    102.0540	   2933.4792
    102.0549	   4143.1836
    102.0559	   4035.6162
    102.0569	   2683.5935
    102.0579	   1058.5927
    102.0589	      0.0000
    102.0598	      0.0000
    102.0608	      0.0000
    102.0618	      0.0000
    102.0628	      0.0000
    102.0637	      0.0000
    102.0647	      0.0000
    102.0657	      0.0000
    102.0667	   1457.2880
    102.0677	   2953.7185
    102.0686	   4081.0198
    102.0696	   3919.1602
    102.0706	   1211.1791
    102.0712	   1473.1241
    102.0722	   6653.7310
    102.0732	  15727.7705
    102.0741	  25315.6387
    102.0751	  27193.8047
    102.0761	  18166.5625
    102.0771	   9189.4326
    102.0780	   2556.6548
    102.0790	   1366.5643
    102.0804	      0.0000
    102.0813	      0.0000
    102.0823	      0.0000
    102.0833	      0.0000
    104.0463	      0.0000
    104.0473	      0.0000
    104.0483	      0.0000
    104.0493	      0.0000
    104.0504	   2434.2422
    104.0514	   6274.3086
    104.0524	  12375.7764
    104.0534	  18029.9824
    104.0544	  15881.3955
    104.0554	   9531.9912
    104.0564	   3659.6934
    104.0574	   1368.5339
    104.0584	      0.0000
    104.0594	      0.0000
    104.0604	      0.0000
    104.0614	      0.0000
    109.7228	      0.0000
    109.7238	      0.0000
    109.7249	      0.0000
    109.7260	      0.0000
    109.7271	      0.0000
    109.7282	      0.0000
    109.7293	      0.0000
    109.7304	      0.0000
    109.7315	      0.0000
    109.7326	      0.0000
    109.7337	      0.0000
    109.7348	      0.0000
    109.7359	      0.0000
    109.7370	      0.0000
    109.7380	      0.0000
    110.0626	      0.0000
    110.0637	      0.0000
    110.0648	      0.0000
    110.0659	      0.0000
    110.0670	   1317.3064
    110.0681	   6992.5615
    110.0692	  27605.3125
    110.0703	  57217.2891
    110.0714	  88481.2266
    110.0725	  86484.9375
    110.0736	  54932.7891
    110.0747	  25548.7031
    110.0758	   6701.3892
    110.0769	   2270.6909
    110.0779	      0.0000
    110.0790	      0.0000
    110.0801	      0.0000
    110.0812	      0.0000
    111.0694	      0.0000
    111.0705	      0.0000
    111.0716	      0.0000
    111.0727	      0.0000
    111.0739	   2342.0466
    111.0750	   3914.1255
    111.0761	   4592.2310
    111.0772	   3840.3948
    111.0783	   2152.2434
    111.0794	      0.0000
    111.0805	      0.0000
    111.0816	      0.0000
    111.0827	      0.0000
    115.0318	      0.0000
    115.0330	      0.0000
    115.0342	      0.0000
    115.0353	      0.0000
    115.0365	   1410.5128
    115.0377	   2720.4905
    115.0389	   3481.8723
    115.0400	   3058.8203
    115.0412	   1674.2888
    115.0423	      0.0000
    115.0435	      0.0000
    115.0447	      0.0000
    115.0458	      0.0000
    120.0367	      0.0000
    120.0379	      0.0000
    120.0392	      0.0000
    120.0404	      0.0000
    120.0417	   1237.3236
    120.0429	   3266.4875
    120.0441	   4939.3345
    120.0454	   4893.9614
    120.0466	   3224.1624
    120.0479	   1315.1429
    120.0491	      0.0000
    120.0504	      0.0000
    120.0516	      0.0000
    120.0529	      0.0000
    120.0728	      0.0000
    120.0741	      0.0000
    120.0753	      0.0000
    120.0766	      0.0000
    120.0778	   2566.3335
    120.0791	   5026.2749
    120.0803	   6907.0806
    120.0816	   6869.0127
    120.0828	   4914.2642
    120.0841	   2379.7776
    120.0853	      0.0000
    120.0866	      0.0000
    120.0878	      0.0000
    120.0891	      0.0000
    122.0731	      0.0000
    122.0744	      0.0000
    122.0757	      0.0000
    122.0770	      0.0000
    122.0782	   1444.7610
    122.0795	   3411.1299
    122.0808	   5152.4995
    122.0821	   5504.7622
    122.0834	   4258.1060
    122.0846	   2333.0078
    122.0857	      0.0000
    122.0870	      0.0000
    122.0883	      0.0000
    122.0895	      0.0000
    126.0436	      0.0000
    126.0450	      0.0000
    126.0463	      0.0000
    126.0477	      0.0000
    126.0490	    534.7825
    126.0504	   3252.2480
    126.0517	  15728.5332
    126.0530	  39654.9258
    126.0544	  65501.9570
    126.0557	  75394.5469
    126.0571	  53046.2422
    126.0584	  28550.7305
    126.0598	   8394.0215
    126.0611	   1342.2710
    126.0626	      0.0000
    126.0639	      0.0000
    126.0653	      0.0000
    126.0666	      0.0000
    127.0294	      0.0000
    127.0308	      0.0000
    127.0321	      0.0000
    127.0335	      0.0000
    127.0348	   1689.8788
    127.0362	   8325.6826
    127.0375	  16991.0918
    127.0389	  25672.9063
    127.0403	  23560.3574
    127.0416	  14373.2881
    127.0430	   6012.5967
    127.0443	   1256.9061
    127.0459	      0.0000
    127.0472	      0.0000
    127.0486	      0.0000
    127.0499	      0.0000
    129.0566	      0.0000
    129.0580	      0.0000
    129.0594	      0.0000
    129.0608	      0.0000
    129.0622	   2564.9214
    129.0636	   9964.4277
    129.0650	  18576.7246
    129.0664	  25944.1777
    129.0678	  21542.7148
    129.0692	  12460.9541
    129.0705	   4171.3472
    129.0719	    194.4061
    129.0733	      0.0000
    129.0747	      0.0000
    129.0760	      0.0000
    129.0774	      0.0000
    129.0900	      0.0000
    129.0914	      0.0000
    129.0927	      0.0000
    129.0941	      0.0000
    129.0955	   1896.2251
    129.0969	   4358.1943
    129.0983	  16042.6133
    129.0997	  53195.5625
    129.1011	  99831.4922
    129.1025	 143560.3438
    129.1039	 127438.1250
    129.1053	  78061.7031
    129.1067	  32558.1914
    129.1080	   7872.1636
    129.1094	   1777.1193
    129.1107	      0.0000
    129.1121	      0.0000
    129.1135	      0.0000
    129.1149	      0.0000
    130.0327	      0.0000
    130.0341	      0.0000
    130.0355	      0.0000
    130.0369	      0.0000
    130.0383	      0.0000
    130.0397	      0.0000
    130.0411	      0.0000
    130.0425	   6421.1812
    130.0439	   7592.8223
    130.0453	  22949.1895
    130.0467	  82394.3359
    130.0481	 182064.2969
    130.0495	 289808.9063
    130.0509	 309987.2500
    130.0523	 208229.1094
    130.0537	 106911.5391
    130.0551	  30867.2129
    130.0565	   8090.7085
    130.0579	   4396.9131
    130.0594	   2026.8954
    130.0608	      0.0000
    130.0622	      0.0000
    130.0636	      0.0000
    130.0650	      0.0000
    130.0974	      0.0000
    130.0988	      0.0000
    130.1002	      0.0000
    130.1016	      0.0000
    130.1030	   2040.5450
    130.1044	   4096.4019
    130.1058	   5164.7163
    130.1072	   4498.0918
    130.1086	   2662.5889
    130.1101	    921.0723
    130.1115	      0.0000
    130.1129	      0.0000
    130.1143	      0.0000
    130.1157	      0.0000
    131.0427	      0.0000
    131.0442	      0.0000
    131.0456	      0.0000
    131.0470	      0.0000
    131.0484	   1109.3177
    131.0499	   2769.0947
    131.0513	   5920.9780
    131.0527	  11517.1699
    131.0541	  13701.4893
    131.0555	   7250.5952
    131.0570	   3887.7981
    131.0584	   1360.1573
    131.0598	      0.0000
    131.0612	      0.0000
    131.0626	      0.0000
    131.0640	      0.0000
    138.0415	      0.0000
    138.0430	      0.0000
    138.0446	      0.0000
    138.0461	      0.0000
    138.0476	   1170.6089
    138.0492	   3579.0325
    138.0507	  14742.0430
    138.0523	  46951.7383
    138.0538	  81526.2500
    138.0553	 107064.4453
    138.0569	  84015.3828
    138.0584	  49302.1719
    138.0599	  16526.1270
    138.0615	   4741.6001
    138.0630	   2277.6284
    138.0646	      0.0000
    138.0661	      0.0000
    138.0676	      0.0000
    138.0692	      0.0000
    139.0500	      0.0000
    139.0516	      0.0000
    139.0531	      0.0000
    139.0547	      0.0000
    139.0562	   2375.1470
    139.0578	   3965.8206
    139.0593	   4468.0303
    139.0609	   3567.9448
    139.0625	   1963.6121
    139.0640	      0.0000
    139.0656	      0.0000
    139.0671	      0.0000
    139.0687	      0.0000
    141.0576	      0.0000
    141.0592	      0.0000
    141.0608	      0.0000
    141.0624	      0.0000
    141.0640	   2441.3059
    141.0656	   3777.3340
    141.0671	   4056.0518
    141.0687	   3124.4065
    141.0703	   1676.6766
    141.0716	      0.0000
    141.0732	      0.0000
    141.0748	      0.0000
    141.0764	      0.0000
    141.0907	      0.0000
    141.0923	      0.0000
    141.0939	      0.0000
    141.0955	      0.0000
    141.0971	   1972.1899
    141.0987	   9549.8252
    141.1003	  19887.1367
    141.1018	  30599.0801
    141.1034	  29575.6055
    141.1050	  18836.8926
    141.1066	   8897.2998
    141.1082	   2660.8987
    141.1098	   1287.5704
    141.1117	      0.0000
    141.1133	      0.0000
    141.1149	      0.0000
    141.1165	      0.0000
    144.0539	      0.0000
    144.0556	      0.0000
    144.0572	      0.0000
    144.0589	      0.0000
    144.0605	    887.5801
    144.0621	   2958.4119
    144.0638	   5982.4805
    144.0654	   8133.6865
    144.0671	   7853.0410
    144.0687	   5373.9253
    144.0703	   2448.3281
    144.0720	      0.0000
    144.0736	      0.0000
    144.0753	      0.0000
    144.0769	      0.0000
    145.0380	      0.0000
    145.0397	      0.0000
    145.0413	      0.0000
    145.0430	      0.0000
    145.0447	   2038.4648
    145.0463	   8090.0986
    145.0480	  15526.3477
    145.0496	  22257.9707
    145.0513	  19050.0313
    145.0529	  11367.7471
    145.0546	   4044.7092
    145.0563	    911.4695
    145.0579	   2848.3611
    145.0596	   4219.1479
    145.0612	   4458.3413
    145.0629	   3277.4128
    145.0645	   1599.2767
    145.0663	      0.0000
    145.0680	      0.0000
    145.0696	      0.0000
    145.0713	      0.0000
    146.0742	      0.0000
    146.0759	      0.0000
    146.0776	      0.0000
    146.0792	      0.0000
    146.0809	   2310.5710
    146.0826	  10391.4521
    146.0843	  15106.7422
    146.0859	  29841.5527
    146.0876	  96262.1406
    146.0893	 299478.9375
    146.0910	 536073.7500
    146.0926	 736720.7500
    146.0943	 615411.0625
    146.0960	 368737.0938
    146.0977	 139764.5156
    146.0993	  35633.6211
    146.1010	  10548.3799
    146.1027	   9623.6045
    146.1044	   3043.4634
    146.1060	   2821.2188
    146.1077	      0.0000
    146.1093	      0.0000
    146.1109	      0.0000
    146.1126	      0.0000
    146.1143	      0.0000
    147.0553	      0.0000
    147.0570	      0.0000
    147.0587	      0.0000
    147.0604	      0.0000
    147.0621	   1840.1051
    147.0638	   5407.7798
    147.0655	   7592.7485
    147.0672	  13602.8652
    147.0689	  15664.8320
    147.0705	  40936.7539
    147.0722	 143678.5938
    147.0739	 332737.6563
    147.0756	 537632.3125
    147.0773	 596189.0625
    147.0790	 407922.6875
    147.0807	 212766.7500
    147.0824	  60794.4961
    147.0841	  15052.3877
    147.0858	   8723.5576
    147.0875	   4875.3247
    147.0892	      0.0000
    147.0908	   5381.2729
    147.0925	  12113.4297
    147.0942	  24029.3848
    147.0959	  35118.1758
    147.0976	  26978.7109
    147.0993	  14613.8857
    147.1010	   6214.1440
    147.1027	   1855.0153
    147.1048	      0.0000
    147.1065	      0.0000
    147.1082	      0.0000
    147.1099	      0.0000
    148.0674	      0.0000
    148.0691	      0.0000
    148.0708	      0.0000
    148.0725	      0.0000
    148.0742	   1957.5496
    148.0759	   6174.4536
    148.0776	  14840.0781
    148.0793	  24358.3145
    148.0810	  28923.9980
    148.0827	  20892.1289
    148.0845	  11414.4258
    148.0862	   2927.8271
    148.0879	     71.0581
    148.0892	      0.0000
    148.0909	      0.0000
    148.0926	      0.0000
    148.0943	      0.0000
    154.0859	      0.0000
    154.0877	      0.0000
    154.0895	      0.0000
    154.0913	      0.0000
    154.0932	   1317.1696
    154.0950	   3427.8555
    154.0968	   5148.1997
    154.0986	   5125.2456
    154.1004	   3358.0793
    154.1022	   1268.5183
    154.1040	      0.0000
    154.1059	      0.0000
    154.1077	      0.0000
    154.1095	      0.0000
    155.0685	      0.0000
    155.0703	      0.0000
    155.0721	      0.0000
    155.0740	      0.0000
    155.0758	   2195.4390
    155.0776	   7683.7822
    155.0795	  15262.5957
    155.0813	  22948.4766
    155.0831	  21538.5820
    155.0849	  12990.8330
    155.0868	   5143.7666
    155.0886	    351.6495
    155.0905	      0.0000
    155.0923	      0.0000
    155.0942	      0.0000
    155.0960	      0.0000
    157.0490	      0.0000
    157.0509	      0.0000
    157.0527	      0.0000
    157.0546	      0.0000
    157.0565	   1904.3959
    157.0583	   3902.1689
    157.0602	   5384.0845
    157.0621	   5322.3037
    157.0639	   3797.7673
    157.0658	   1851.8838
    157.0673	      0.0000
    157.0692	      0.0000
    157.0711	      0.0000
    157.0729	      0.0000
    157.1196	      0.0000
    157.1215	      0.0000
    157.1234	      0.0000
    157.1252	      0.0000
    157.1271	   1866.8154
    157.1290	   9507.8896
    157.1308	  21483.7656
    157.1327	  34347.7109
    157.1346	  35639.3164
    157.1364	  23161.7910
    157.1383	  11282.1328
    157.1402	   2825.7351
    157.1420	    114.4610
    157.1442	      0.0000
    157.1461	      0.0000
    157.1479	      0.0000
    157.1498	      0.0000
    163.0456	      0.0000
    163.0476	      0.0000
    163.0495	      0.0000
    163.0515	      0.0000
    163.0535	   1487.8441
    163.0555	   4003.7200
    163.0574	   9866.0635
    163.0594	  16212.5146
    163.0614	  16951.3535
    163.0634	  10962.0830
    163.0653	   5151.3169
    163.0673	   1731.8347
    163.0693	      0.0000
    163.0713	      0.0000
    163.0733	      0.0000
    163.0752	      0.0000
    166.0324	      0.0000
    166.0345	      0.0000
    166.0365	      0.0000
    166.0385	      0.0000
    166.0406	   1200.6627
    166.0426	   3783.6956
    166.0446	  15147.5410
    166.0466	  40820.1016
    166.0487	  68457.0625
    166.0507	  83020.4531
    166.0527	  60852.3633
    166.0548	  33998.4648
    166.0568	  10248.5068
    166.0588	   2233.4563
    166.0609	      0.0000
    166.0629	      0.0000
    166.0649	      0.0000
    166.0670	      0.0000
    167.0702	      0.0000
    167.0723	      0.0000
    167.0743	      0.0000
    167.0764	      0.0000
    167.0784	   2250.2581
    167.0804	   3966.2676
    167.0825	   4417.9834
    167.0845	   3156.9548
    167.0866	   1227.2496
    167.0880	      0.0000
    167.0901	      0.0000
    167.0921	      0.0000
    167.0942	      0.0000
    168.0489	      0.0000
    168.0510	      0.0000
    168.0530	      0.0000
    168.0551	      0.0000
    168.0572	    700.3081
    168.0592	   2954.7461
    168.0613	  12427.1514
    168.0634	  22851.3262
    168.0654	  30904.2402
    168.0675	  24701.8184
    168.0696	  14449.4502
    168.0716	   5297.3804
    168.0737	   1741.5574
    168.0764	      0.0000
    168.0784	      0.0000
    168.0805	      0.0000
    168.0826	      0.0000
    169.0479	      0.0000
    169.0499	      0.0000
    169.0520	      0.0000
    169.0541	      0.0000
    169.0562	   1703.5215
    169.0583	   3633.9231
    169.0604	   4843.8379
    169.0625	   4273.6392
    169.0645	   2419.0840
    169.0664	      0.0000
    169.0685	      0.0000
    169.0706	      0.0000
    169.0727	      0.0000
    169.0810	      0.0000
    169.0831	      0.0000
    169.0852	      0.0000
    169.0873	      0.0000
    169.0894	    650.5847
    169.0915	   4884.1768
    169.0935	  14611.3721
    169.0956	  24883.0996
    169.0977	  30916.4414
    169.0998	  22936.0566
    169.1019	  12748.3613
    169.1040	   3683.7200
    169.1061	    281.0431
    169.1083	      0.0000
    169.1103	      0.0000
    169.1124	      0.0000
    169.1145	      0.0000
    172.0926	      0.0000
    172.0947	      0.0000
    172.0968	      0.0000
    172.0990	      0.0000
    172.1011	   1825.0316
    172.1033	   8706.7559
    172.1054	  18174.8555
    172.1075	  27993.8398
    172.1097	  27226.4668
    172.1118	  17168.1426
    172.1140	   7821.9399
    172.1161	   1655.9906
    172.1184	      0.0000
    172.1206	      0.0000
    172.1227	      0.0000
    172.1248	      0.0000
    182.0749	      0.0000
    182.0772	      0.0000
    182.0795	      0.0000
    182.0818	      0.0000
    182.0842	   1571.8320
    182.0865	   4621.4004
    182.0888	  11562.2764
    182.0912	  18984.3848
    182.0935	  20834.9277
    182.0958	  14000.3398
    182.0982	   6848.6040
    182.1005	   2207.5530
    182.1030	      0.0000
    182.1053	      0.0000
    182.1076	      0.0000
    182.1100	      0.0000
    183.0530	      0.0000
    183.0554	      0.0000
    183.0577	      0.0000
    183.0601	      0.0000
    183.0624	   1824.9397
    183.0648	   3587.3208
    183.0671	   6905.6118
    183.0695	  23185.3789
    183.0718	  76078.6719
    183.0742	 142882.8281
    183.0765	 206381.3906
    183.0789	 184648.0469
    183.0812	 113327.5313
    183.0836	  47685.7461
    183.0859	  11847.7549
    183.0883	   2514.9705
    183.0905	      0.0000
    183.0928	      0.0000
    183.0952	      0.0000
    183.0975	      0.0000
    183.0999	      0.0000
    183.1022	      0.0000
    183.1046	      0.0000
    183.1069	      0.0000
    183.1093	   2426.2925
    183.1116	   4198.6729
    183.1140	   4503.6274
    183.1163	   3341.4004
    183.1187	   1749.1344
    183.1210	      0.0000
    183.1234	      0.0000
    183.1257	      0.0000
    183.1281	      0.0000
    184.0649	      0.0000
    184.0672	      0.0000
    184.0696	      0.0000
    184.0720	      0.0000
    184.0743	   1191.3102
    184.0767	   3693.9421
    184.0791	   6208.3428
    184.0814	   7130.3672
    184.0838	   5813.8906
    184.0862	   3258.2048
    184.0886	   1162.7861
    184.0910	      0.0000
