# ljz_20131022_MR_Chym1_ELUTE.mzML
#
# index: 100
# id: controllerType=0 controllerNumber=1 scan=3975
# scanNumber: 3975
# massAnalyzerType: quadrupole
# scanEvent: 2
# msLevel: 2
# retentionTime: 1277.42
# filterString: FTMS + p NSI d Full ms2 343.71@hcd28.00 [100.00-720.00]
# mzLow: 99.0036
# mzHigh: 727.329
# basePeakMZ: 101.072
# basePeakIntensity: 165743
# totalIonCurrent: 1.44997e+006
# precursorCount: 1
# precursor 0: 343.715 2.49119e+006
# binary (2052): 
     99.0036	      0.0000
     99.0045	      0.0000
     99.0055	      0.0000
     99.0064	      0.0000
    101.0176	      0.0000
    101.0185	      0.0000
    101.0195	      0.0000
    101.0204	      0.0000
    101.0214	    740.9730
    101.0224	   1698.4545
    101.0233	   3474.9727
    101.0243	   3675.5007
    101.0253	   2356.8154
    101.0262	    992.9799
    101.0272	    359.5245
    101.0284	      0.0000
    101.0293	      0.0000
    101.0303	      0.0000
    101.0312	      0.0000
    101.0611	      0.0000
    101.0621	      0.0000
    101.0630	      0.0000
    101.0640	      0.0000
    101.0650	      0.0000
    101.0659	   1986.1266
    101.0669	   4274.6626
    101.0679	   9766.9590
    101.0688	  26795.9668
    101.0698	  74576.4609
    101.0708	 127048.4688
    101.0717	 165730.6875
    101.0727	 129803.9375
    101.0736	  75668.3438
    101.0746	  23712.5723
    101.0756	   3935.9688
    101.0765	      0.0000
    101.0773	      0.0000
    101.0783	      0.0000
    101.0792	      0.0000
    101.0802	      0.0000
    101.1024	      0.0000
    101.1033	      0.0000
    101.1043	      0.0000
    101.1053	      0.0000
    101.1062	    688.9799
    101.1072	   1143.6481
    101.1081	   1312.7660
    101.1091	   1057.2806
    101.1101	    554.8220
    101.1109	      0.0000
    101.1119	      0.0000
    101.1128	      0.0000
    101.1138	      0.0000
    102.0676	      0.0000
    102.0686	      0.0000
    102.0695	      0.0000
    102.0705	      0.0000
    102.0715	    414.1597
    102.0725	   2248.1101
    102.0735	   4837.3198
    102.0744	   7448.2378
    102.0754	   6991.5981
    102.0764	   4245.0122
    102.0774	   1706.2004
    102.0783	    297.4958
    102.0794	      0.0000
    102.0804	      0.0000
    102.0814	      0.0000
    102.0823	      0.0000
    105.0267	      0.0000
    105.0277	      0.0000
    105.0287	      0.0000
    105.0298	      0.0000
    105.0308	    601.6648
    105.0318	   1775.8922
    105.0328	   3514.1248
    105.0339	   4989.9629
    105.0349	   4113.9048
    105.0359	   2365.1143
    105.0369	    826.8771
    105.0379	    320.0617
    105.0390	      0.0000
    105.0400	      0.0000
    105.0410	      0.0000
    105.0420	      0.0000
    105.4753	      0.0000
    105.4763	      0.0000
    105.4774	      0.0000
    105.4784	      0.0000
    105.4794	    459.5821
    105.4805	    764.2774
    105.4815	    908.2929
    105.4825	    786.3027
    105.4835	    463.7228
    105.4844	      0.0000
    105.4855	      0.0000
    105.4865	      0.0000
    105.4875	      0.0000
    117.3797	      0.0000
    117.3809	      0.0000
    117.3821	      0.0000
    117.3833	      0.0000
    117.3845	    498.9161
    117.3857	    832.0103
    117.3869	   1023.8129
    117.3881	    998.1353
    117.3893	    784.5878
    117.3905	    479.4097
    117.3916	      0.0000
    117.3928	      0.0000
    117.3940	      0.0000
    117.3952	      0.0000
    127.0770	      0.0000
    127.0784	      0.0000
    127.0797	      0.0000
    127.0811	      0.0000
    127.0824	    288.3280
    127.0838	    782.8973
    127.0852	   1299.4969
    127.0865	   1464.7054
    127.0879	   1144.9159
    127.0892	    578.8179
    127.0909	      0.0000
    127.0922	      0.0000
    127.0936	      0.0000
    127.0950	      0.0000
    129.0888	      0.0000
    129.0902	      0.0000
    129.0916	      0.0000
    129.0930	      0.0000
    129.0944	    730.5995
    129.0958	   1475.1270
    129.0972	   2878.6743
    129.0985	   7760.7070
    129.0999	  22212.4082
    129.1013	  39111.6094
    129.1027	  53283.7148
    129.1041	  44297.9063
    129.1055	  26302.3770
    129.1069	   9479.4883
    129.1083	   1571.7959
    129.1097	      0.0000
    129.1111	      0.0000
    129.1125	      0.0000
    129.1139	      0.0000
    129.1153	      0.0000
    130.0724	      0.0000
    130.0738	      0.0000
    130.0752	      0.0000
    130.0766	      0.0000
    130.0780	    206.8816
    130.0795	   1031.5586
    130.0809	   2232.0161
    130.0823	   6466.1221
    130.0837	  19766.8574
    130.0851	  37144.5156
    130.0865	  54039.8242
    130.0879	  48995.2969
    130.0893	  30109.3340
    130.0907	  12579.3555
    130.0921	   2538.7305
    130.0935	    279.4035
    130.0946	      0.0000
    130.0960	      0.0000
    130.0974	      0.0000
    130.0988	      0.0000
    130.1002	      0.0000
    130.1017	    622.2800
    130.1031	   1196.3456
    130.1045	   1949.8325
    130.1059	   3832.6072
    130.1073	   2274.5103
    130.1087	   1442.2506
    130.1101	    606.1808
    130.1115	      0.0000
    130.1129	      0.0000
    130.1143	      0.0000
    130.1157	      0.0000
    131.0798	      0.0000
    131.0812	      0.0000
    131.0826	      0.0000
    131.0841	      0.0000
    131.0855	    461.8909
    131.0869	   1218.0511
    131.0883	   2864.8330
    131.0898	   4187.1094
    131.0912	   3837.5051
    131.0926	   1690.1748
    131.0940	    779.1137
    131.0954	    219.7687
    131.0968	      0.0000
    131.0982	      0.0000
    131.0996	      0.0000
    131.1011	      0.0000
    139.0765	      0.0000
    139.0781	      0.0000
    139.0796	      0.0000
    139.0812	      0.0000
    139.0827	    654.5558
    139.0843	   1424.9940
    139.0858	   2074.0696
    139.0874	   2121.8425
    139.0890	   1521.9144
    139.0905	    722.0110
    139.0922	      0.0000
    139.0938	      0.0000
    139.0953	      0.0000
    139.0969	      0.0000
    141.0896	      0.0000
    141.0912	      0.0000
    141.0928	      0.0000
    141.0944	      0.0000
    141.0960	    284.1645
    141.0975	    992.1193
    141.0991	   3666.0591
    141.1007	   6964.7388
    141.1023	   9975.6563
    141.1039	   8457.0625
    141.1055	   4910.4980
    141.1071	   1675.3601
    141.1087	    183.5453
    141.1104	      0.0000
    141.1120	      0.0000
    141.1136	      0.0000
    141.1152	      0.0000
    146.0761	      0.0000
    146.0778	      0.0000
    146.0795	      0.0000
    146.0812	      0.0000
    146.0828	    644.0390
    146.0845	   1271.7108
    146.0862	   2893.6990
    146.0879	   8456.8555
    146.0895	  24454.4082
    146.0912	  42057.9492
    146.0929	  55209.5391
    146.0945	  43363.9609
    146.0962	  25226.0977
    146.0979	   7930.5332
    146.0996	   1241.8726
    146.1013	      0.0000
    146.1029	      0.0000
    146.1046	      0.0000
    146.1063	      0.0000
    146.1079	      0.0000
    147.0963	      0.0000
    147.0980	      0.0000
    147.0996	      0.0000
    147.1013	      0.0000
    147.1030	    468.8744
    147.1047	   1088.5267
    147.1064	   3164.7864
    147.1081	  10417.5313
    147.1098	  30981.1309
    147.1115	  54077.0859
    147.1132	  72381.5859
    147.1149	  58315.6914
    147.1166	  34321.6406
    147.1183	  11655.9844
    147.1200	   2126.1616
    147.1216	    106.0597
    147.1230	      0.0000
    147.1247	      0.0000
    147.1264	      0.0000
    147.1281	      0.0000
    148.1046	      0.0000
    148.1063	      0.0000
    148.1080	      0.0000
    148.1097	      0.0000
    148.1115	    671.5931
    148.1132	   2389.7996
    148.1149	   3997.7712
    148.1166	   4803.0620
    148.1183	   3434.3223
    148.1200	   1815.9904
    148.1217	    326.7076
    148.1235	      0.0000
    148.1252	      0.0000
    148.1269	      0.0000
    148.1286	      0.0000
    150.6660	      0.0000
    150.6678	      0.0000
    150.6695	      0.0000
    150.6713	      0.0000
    150.6730	    691.3693
    150.6748	    986.1326
    150.6765	   1033.6300
    150.6783	    796.9945
    150.6801	    419.9354
    150.6816	      0.0000
    150.6834	      0.0000
    150.6851	      0.0000
    150.6869	      0.0000
    155.0684	      0.0000
    155.0702	      0.0000
    155.0720	      0.0000
    155.0738	      0.0000
    155.0757	    293.8852
    155.0775	   2147.4194
    155.0793	   4669.8574
    155.0812	   7175.0396
    155.0830	   6523.5337
    155.0848	   3931.0425
    155.0867	   1537.5165
    155.0885	    377.2943
    155.0906	      0.0000
    155.0924	      0.0000
    155.0942	      0.0000
    155.0961	      0.0000
    157.0696	      0.0000
    157.0715	      0.0000
    157.0733	      0.0000
    157.0752	      0.0000
    157.0771	    244.3853
    157.0789	    788.7468
    157.0808	   1693.4417
    157.0827	   3656.4070
    157.0845	   3951.0054
    157.0864	   2551.4104
    157.0883	   1147.9133
    157.0901	    542.7915
    157.0925	      0.0000
    157.0943	      0.0000
    157.0962	      0.0000
    157.0981	      0.0000
    157.1186	      0.0000
    157.1205	      0.0000
    157.1223	      0.0000
    157.1242	      0.0000
    157.1261	    578.3807
    157.1279	   1888.5154
    157.1298	   6538.2256
    157.1317	  13012.5313
    157.1336	  19641.3652
    157.1354	  18417.4609
    157.1373	  11326.9805
    157.1392	   4743.5806
    157.1410	    870.7079
    157.1429	    225.5773
    157.1443	      0.0000
    157.1462	      0.0000
    157.1480	      0.0000
    157.1499	      0.0000
    159.1001	      0.0000
    159.1020	      0.0000
    159.1039	      0.0000
    159.1058	      0.0000
    159.1077	    264.2606
    159.1096	    865.8767
    159.1115	   1604.3453
    159.1134	   2027.1160
    159.1153	   1844.7148
    159.1172	   1212.3475
    159.1191	    565.7305
    159.1210	      0.0000
    159.1229	      0.0000
    159.1248	      0.0000
    159.1267	      0.0000
    160.9995	      0.0000
    161.0014	      0.0000
    161.0034	      0.0000
    161.0053	      0.0000
    161.0072	    354.4608
    161.0092	    845.6248
    161.0111	   1220.8710
    161.0131	   1202.5919
    161.0150	    816.2568
    161.0169	    341.1293
    161.0188	      0.0000
    161.0207	      0.0000
    161.0227	      0.0000
    161.0246	      0.0000
    163.0594	      0.0000
    163.0614	      0.0000
    163.0633	      0.0000
    163.0653	      0.0000
    163.0673	     88.3098
    163.0693	    880.3754
    163.0712	   3412.2900
    163.0732	   6351.4761
    163.0752	   8908.8320
    163.0772	   7589.4448
    163.0792	   4569.6938
    163.0811	   1755.6732
    163.0831	    346.7186
    163.0854	      0.0000
    163.0874	      0.0000
    163.0894	      0.0000
    163.0913	      0.0000
    166.0327	      0.0000
    166.0348	      0.0000
    166.0368	      0.0000
    166.0388	      0.0000
    166.0408	    338.0921
    166.0429	   1169.1202
    166.0449	   4099.3657
    166.0469	   9729.7461
    166.0490	  15908.9609
    166.0510	  18003.7871
    166.0530	  12486.9570
    166.0551	   6538.8086
    166.0571	   1748.1094
    166.0591	    405.3937
    166.0606	      0.0000
    166.0626	      0.0000
    166.0646	      0.0000
    166.0666	      0.0000
    167.0658	      0.0000
    167.0678	      0.0000
    167.0699	      0.0000
    167.0719	      0.0000
    167.0740	     82.3725
    167.0760	   1263.2980
    167.0781	   3514.0115
    167.0801	   5935.0444
    167.0822	   6780.4429
    167.0842	   4624.9409
    167.0863	   2348.5176
    167.0883	    537.4265
    167.0907	      0.0000
    167.0928	      0.0000
    167.0948	      0.0000
    167.0969	      0.0000
    168.9812	      0.0000
    168.9833	      0.0000
    168.9854	      0.0000
    168.9875	      0.0000
    168.9896	    381.5791
    168.9916	    991.0729
    168.9937	   1495.3275
    168.9958	   1528.5311
    168.9979	   1083.1250
    169.0000	    496.2547
    169.0021	      0.0000
    169.0041	      0.0000
    169.0062	      0.0000
    169.0083	      0.0000
    169.0834	      0.0000
    169.0855	      0.0000
    169.0875	      0.0000
    169.0896	      0.0000
    169.0917	    585.2925
    169.0938	   2024.7325
    169.0959	   3548.4341
    169.0980	   4415.2656
    169.1001	   3147.7224
    169.1021	   1603.3171
    169.1042	    632.9016
    169.1063	      0.0000
    169.1084	      0.0000
    169.1105	      0.0000
    169.1125	      0.0000
    172.0927	      0.0000
    172.0948	      0.0000
    172.0970	      0.0000
    172.0991	      0.0000
    172.1012	    618.8674
    172.1034	   2095.7158
    172.1055	   3795.6414
    172.1077	   5283.0059
    172.1098	   4511.3262
    172.1120	   2652.7195
    172.1141	    953.7727
    172.1162	    360.0581
    172.1184	      0.0000
    172.1206	      0.0000
    172.1227	      0.0000
    172.1249	      0.0000
    174.9766	      0.0000
    174.9788	      0.0000
    174.9810	      0.0000
    174.9832	      0.0000
    174.9854	    481.3561
    174.9876	   1354.8295
    174.9897	   3515.3345
    174.9919	   4820.8252
    174.9941	   3992.4729
    174.9963	   2246.0945
    174.9985	    609.3965
    175.0010	      0.0000
    175.0032	      0.0000
    175.0054	      0.0000
    175.0076	      0.0000
    182.0751	      0.0000
    182.0775	      0.0000
    182.0798	      0.0000
    182.0821	      0.0000
    182.0844	    521.7900
    182.0868	   1336.3596
    182.0891	   3612.3511
    182.0914	   6053.4868
    182.0938	   7423.0732
    182.0961	   5532.5493
    182.0984	   3091.7522
    182.1008	    849.5316
    182.1031	    502.1126
    182.1057	      0.0000
    182.1081	      0.0000
    182.1104	      0.0000
    182.1127	      0.0000
    183.0558	      0.0000
    183.0582	      0.0000
    183.0605	      0.0000
    183.0629	      0.0000
    183.0652	    696.4048
    183.0676	   1603.6078
    183.0699	   4788.8335
    183.0723	  14317.3613
    183.0746	  25721.5840
    183.0770	  35768.5391
    183.0793	  30408.0820
    183.0817	  18182.1855
    183.0840	   6820.0811
    183.0864	   1148.5488
    183.0887	      0.0000
    183.0905	      0.0000
    183.0929	      0.0000
    183.0952	      0.0000
    183.0976	      0.0000
    183.1375	      0.0000
    183.1399	      0.0000
    183.1422	      0.0000
    183.1446	      0.0000
    183.1470	    688.2947
    183.1493	   1096.2898
    183.1517	   1157.0167
    183.1540	    829.8297
    183.1564	    377.6086
    183.1587	      0.0000
    183.1611	      0.0000
    183.1634	      0.0000
    183.1658	      0.0000
    184.0649	      0.0000
    184.0673	      0.0000
    184.0697	      0.0000
    184.0720	      0.0000
    184.0744	    358.7079
    184.0768	    908.2823
    184.0791	   1468.3424
    184.0815	   1686.2510
    184.0839	   1381.6111
    184.0862	    760.5250
    184.0886	    247.9451
    184.0915	      0.0000
    184.0939	      0.0000
    184.0962	      0.0000
    184.0986	    252.3348
    184.1010	   1148.9889
    184.1034	   3905.3884
    184.1057	   7588.7065
    184.1081	  11221.7168
    184.1105	  10164.9434
    184.1128	   6171.0010
    184.1152	   2450.2041
    184.1176	    410.1067
    184.1194	      0.0000
    184.1218	      0.0000
    184.1242	      0.0000
    184.1265	      0.0000
    185.0973	      0.0000
    185.0997	      0.0000
    185.1020	      0.0000
    185.1044	      0.0000
    185.1068	    202.9106
    185.1092	    790.9705
    185.1116	   1991.8304
    185.1140	   2528.2773
    185.1164	   2188.0618
    185.1188	   1942.3743
    185.1214	   4095.9517
    185.1238	  12627.6406
    185.1261	  23358.1035
    185.1285	  33161.8125
    185.1309	  28992.1230
    185.1333	  17522.3945
    185.1357	   6870.9360
    185.1381	   1530.4393
    185.1405	    239.8001
    185.1427	      0.0000
    185.1451	      0.0000
    185.1474	      0.0000
    185.1498	      0.0000
    185.1522	      0.0000
    185.1546	      0.0000
    185.1570	    423.0375
    185.1594	   1173.7761
    185.1618	   2759.0540
    185.1642	   4048.5144
    185.1666	   3409.6035
    185.1690	   1536.0286
    185.1713	    622.3387
    185.1737	      0.0000
    185.1761	      0.0000
    185.1785	      0.0000
    185.1809	      0.0000
    186.1070	      0.0000
    186.1094	      0.0000
    186.1118	      0.0000
    186.1142	      0.0000
    186.1166	    613.7720
    186.1191	   2528.7683
    186.1215	   4683.6069
    186.1239	   6471.8101
    186.1263	   5694.4653
    186.1287	   3714.2896
    186.1311	   1163.2887
    186.1335	    434.5129
    186.1367	      0.0000
    186.1391	      0.0000
    186.1415	      0.0000
    186.1439	      0.0000
    195.0565	      0.0000
    195.0591	      0.0000
    195.0617	      0.0000
    195.0642	      0.0000
    195.0668	    403.1853
    195.0694	    880.5872
    195.0720	   2829.1477
    195.0746	   5134.6738
    195.0772	   7154.9214
    195.0797	   6044.1797
    195.0823	   3507.5623
    195.0849	   1160.8086
    195.0875	      0.0000
    195.0898	      0.0000
    195.0924	      0.0000
    195.0949	      0.0000
    195.0975	      0.0000
    200.0789	      0.0000
    200.0816	      0.0000
    200.0842	      0.0000
    200.0869	      0.0000
    200.0896	    454.2242
    200.0923	   1199.8514
    200.0950	   3811.8733
    200.0977	  11782.7061
    200.1003	  21913.5527
    200.1030	  31536.5059
    200.1057	  28248.5938
    200.1084	  17319.4434
    200.1111	   7169.7788
    200.1138	   1582.2147
    200.1165	    172.2667
    200.1187	      0.0000
    200.1214	      0.0000
    200.1240	      0.0000
    200.1267	      0.0000
    201.0889	      0.0000
    201.0916	      0.0000
    201.0943	      0.0000
    201.0970	      0.0000
    201.0997	    614.7310
    201.1024	    987.6532
    201.1051	   1218.5127
    201.1078	   1153.8595
    201.1105	    813.0800
    201.1132	    396.0348
    201.1160	      0.0000
    201.1187	      0.0000
    201.1214	      0.0000
    201.1241	      0.0000
    204.0257	      0.0000
    204.0285	      0.0000
    204.0313	      0.0000
    204.0340	      0.0000
    204.0368	    424.2237
    204.0395	   1016.5115
    204.0423	   1582.1252
    204.0451	   1733.4938
    204.0478	   1328.9806
    204.0506	    662.5949
    204.0538	      0.0000
    204.0565	      0.0000
    204.0593	      0.0000
    204.0621	      0.0000
    204.1008	      0.0000
    204.1036	      0.0000
    204.1063	      0.0000
    204.1091	      0.0000
    204.1119	      0.0000
    204.1146	    881.6011
    204.1174	    887.9523
    204.1202	   1256.3918
    204.1229	   1777.5842
    204.1257	   4914.7344
    204.1285	  15969.6318
    204.1312	  31291.2578
    204.1340	  46917.4180
    204.1368	  44442.4180
    204.1395	  27786.5684
    204.1423	  12299.2002
    204.1451	   2866.6367
    204.1478	    641.5734
    204.1502	      0.0000
    204.1529	      0.0000
    204.1557	      0.0000
    204.1585	      0.0000
    205.1164	      0.0000
    205.1192	      0.0000
    205.1220	      0.0000
    205.1248	      0.0000
    205.1276	    239.9198
    205.1304	    783.8568
    205.1332	   1647.8258
    205.1359	   3609.9700
    205.1387	   4025.1584
    205.1415	   2056.7988
    205.1443	   1185.1919
    205.1471	    462.5673
    205.1498	      0.0000
    205.1526	      0.0000
    205.1554	      0.0000
    205.1582	      0.0000
    210.9735	      0.0000
    210.9764	      0.0000
    210.9793	      0.0000
    210.9823	      0.0000
    210.9852	    439.8008
    210.9881	   1096.7867
    210.9910	   1950.8500
    210.9939	   3731.5745
    210.9968	   2284.3652
    210.9997	   1516.2080
    211.0026	    670.7444
    211.0058	      0.0000
    211.0087	      0.0000
    211.0116	      0.0000
    211.0145	      0.0000
    212.0769	      0.0000
    212.0798	      0.0000
    212.0827	      0.0000
    212.0857	      0.0000
    212.0886	     89.3270
    212.0915	    846.9904
    212.0945	   3482.6731
    212.0974	  10919.7080
    212.1003	  19322.6797
    212.1032	  26215.4805
    212.1062	  21549.9961
    212.1091	  12771.9033
    212.1120	   4586.9219
    212.1150	    918.6917
    212.1179	      7.5667
    212.1205	      0.0000
    212.1234	      0.0000
    212.1264	      0.0000
    212.1293	      0.0000
    213.0879	      0.0000
    213.0909	      0.0000
    213.0938	      0.0000
    213.0968	      0.0000
