# ljz_20131022_MR_Chym1_ELUTE.mzML
#
# index: 5906
# id: controllerType=0 controllerNumber=1 scan=12505
# scanNumber: 12505
# massAnalyzerType: quadrupole
# scanEvent: 2
# msLevel: 2
# retentionTime: 2979.98
# filterString: FTMS + p NSI d Full ms2 394.72@hcd28.00 [100.00-825.00]
# mzLow: 99.0036
# mzHigh: 833.386
# basePeakMZ: 317.129
# basePeakIntensity: 109156
# totalIonCurrent: 929780
# precursorCount: 1
# precursor 0: 394.723 1.08086e+006
# binary (2058): 
     99.0036	      0.0000
     99.0045	      0.0000
     99.0055	      0.0000
     99.0064	      0.0000
    101.0002	      0.0000
    101.0012	      0.0000
    101.0022	      0.0000
    101.0031	      0.0000
    101.0041	    571.6777
    101.0050	   1013.3905
    101.0060	   1179.9050
    101.0070	    926.7955
    101.0079	    445.5054
    101.0089	      0.0000
    101.0099	      0.0000
    101.0108	      0.0000
    101.0118	      0.0000
    101.0599	      0.0000
    101.0609	      0.0000
    101.0619	      0.0000
    101.0628	      0.0000
    101.0638	      0.0000
    101.0648	      0.0000
    101.0657	      0.0000
    101.0668	   1382.3168
    101.0678	   2713.5288
    101.0687	   8316.6426
    101.0697	  25248.6230
    101.0707	  44894.9258
    101.0716	  61398.2109
    101.0726	  51053.2773
    101.0736	  30387.7695
    101.0745	  11133.0283
    101.0755	   2288.0369
    101.0765	    180.8039
    101.0773	      0.0000
    101.0782	      0.0000
    101.0792	      0.0000
    101.0802	      0.0000
    102.0687	      0.0000
    102.0697	      0.0000
    102.0706	      0.0000
    102.0716	      0.0000
    102.0726	    511.4233
    102.0736	   1167.6954
    102.0745	   1784.9609
    102.0755	   1939.1405
    102.0765	   1515.9570
    102.0775	    820.5404
    102.0785	    280.1961
    102.0794	      0.0000
    102.0804	      0.0000
    102.0814	      0.0000
    102.0824	      0.0000
    103.0152	      0.0000
    103.0162	      0.0000
    103.0172	      0.0000
    103.0182	      0.0000
    103.0192	    256.7570
    103.0201	    746.9765
    103.0211	   1142.6411
    103.0221	   1122.1442
    103.0231	    717.7362
    103.0242	      0.0000
    103.0252	      0.0000
    103.0262	      0.0000
    103.0271	      0.0000
    104.0454	      0.0000
    104.0464	      0.0000
    104.0474	      0.0000
    104.0484	      0.0000
    104.0494	    667.8635
    104.0505	   2265.3105
    104.0515	   7364.0020
    104.0525	  13274.3887
    104.0535	  18133.4824
    104.0545	  14961.0449
    104.0555	   8886.3975
    104.0565	   3151.4036
    104.0575	    706.1895
    104.0584	      0.0000
    104.0594	      0.0000
    104.0605	      0.0000
    104.0615	      0.0000
    104.9757	      0.0000
    104.9767	      0.0000
    104.9777	      0.0000
    104.9787	      0.0000
    104.9798	    233.3049
    104.9808	    760.4561
    104.9818	   1689.3262
    104.9828	   3490.3154
    104.9838	   3566.0239
    104.9849	   1868.4751
    104.9859	    929.5705
    104.9869	    312.3644
    104.9878	      0.0000
    104.9888	      0.0000
    104.9898	      0.0000
    104.9909	      0.0000
    116.9766	      0.0000
    116.9778	      0.0000
    116.9790	      0.0000
    116.9802	      0.0000
    116.9814	    538.8896
    116.9826	    910.9117
    116.9838	   1030.6212
    116.9850	    793.0038
    116.9862	    373.6060
    116.9877	      0.0000
    116.9889	      0.0000
    116.9901	      0.0000
    116.9913	      0.0000
    120.0707	      0.0000
    120.0719	      0.0000
    120.0732	      0.0000
    120.0744	      0.0000
    120.0757	    496.2365
    120.0769	    757.9295
    120.0782	   2457.6658
    120.0794	   5572.2534
    120.0807	   8976.2246
    120.0819	   9636.2432
    120.0832	   6304.6426
    120.0844	   2997.1011
    120.0857	    530.9876
    120.0866	      0.0000
    120.0879	      0.0000
    120.0891	      0.0000
    120.0904	      0.0000
    122.0527	      0.0000
    122.0540	      0.0000
    122.0553	      0.0000
    122.0565	      0.0000
    122.0578	    391.5925
    122.0591	    809.1292
    122.0604	   1053.6163
    122.0617	    927.0811
    122.0629	    520.2599
    122.0642	      0.0000
    122.0655	      0.0000
    122.0668	      0.0000
    122.0680	      0.0000
    123.7639	      0.0000
    123.7652	      0.0000
    123.7665	      0.0000
    123.7678	      0.0000
    123.7691	    470.1553
    123.7704	    783.6871
    123.7717	    921.0841
    123.7730	    763.0469
    123.7744	    408.7770
    123.7756	      0.0000
    123.7769	      0.0000
    123.7782	      0.0000
    123.7795	      0.0000
    127.2157	      0.0000
    127.2171	      0.0000
    127.2185	      0.0000
    127.2198	      0.0000
    127.2212	    421.2218
    127.2225	    754.6882
    127.2239	    926.6437
    127.2253	    837.1110
    127.2266	    554.7832
    127.2282	      0.0000
    127.2296	      0.0000
    127.2309	      0.0000
    127.2323	      0.0000
    129.0554	      0.0000
    129.0568	      0.0000
    129.0581	      0.0000
    129.0595	      0.0000
    129.0609	    445.5089
    129.0623	   1894.8311
    129.0637	   5855.3633
    129.0651	  10348.4248
    129.0665	  13916.9219
    129.0679	  11295.8291
    129.0693	   6671.8364
    129.0707	   2262.4539
    129.0721	    527.2711
    129.0732	      0.0000
    129.0746	      0.0000
    129.0760	      0.0000
    129.0774	      0.0000
    131.1083	      0.0000
    131.1097	      0.0000
    131.1111	      0.0000
    131.1125	      0.0000
    131.1140	    317.3316
    131.1154	    879.1757
    131.1168	   1477.4143
    131.1182	   1688.7698
    131.1197	   1329.8409
    131.1211	    668.4326
    131.1225	      0.0000
    131.1239	      0.0000
    131.1253	      0.0000
    131.1268	      0.0000
    132.0848	      0.0000
    132.0863	      0.0000
    132.0877	      0.0000
    132.0892	      0.0000
    132.0906	      0.0000
    132.0920	      0.0000
    132.0935	      0.0000
    132.0952	   2495.8643
    132.0966	   4354.4526
    132.0980	  11856.3057
    132.0995	  35115.0391
    132.1009	  63233.3828
    132.1024	  88218.9375
    132.1038	  75642.2422
    132.1052	  45602.8125
    132.1067	  17677.2402
    132.1081	   3798.9775
    132.1096	    601.7068
    132.1107	      0.0000
    132.1122	      0.0000
    132.1136	      0.0000
    132.1151	      0.0000
    132.9690	      0.0000
    132.9705	      0.0000
    132.9719	      0.0000
    132.9734	      0.0000
    132.9749	    733.8307
    132.9763	   1379.3075
    132.9778	   1791.7518
    132.9792	   1674.1530
    132.9807	   1111.0817
    132.9821	    490.0963
    132.9836	      0.0000
    132.9850	      0.0000
    132.9865	      0.0000
    132.9879	      0.0000
    133.0971	      0.0000
    133.0986	      0.0000
    133.1000	      0.0000
    133.1015	      0.0000
    133.1029	    724.1254
    133.1044	   1364.2656
    133.1059	   1767.5342
    133.1073	   1674.2095
    133.1088	   1180.4288
    133.1102	    613.6623
    133.1117	      0.0000
    133.1131	      0.0000
    133.1146	      0.0000
    133.1160	      0.0000
    134.9827	      0.0000
    134.9842	      0.0000
    134.9857	      0.0000
    134.9871	      0.0000
    134.9886	    522.9997
    134.9901	   1947.3167
    134.9916	   3884.5439
    134.9931	   5862.9307
    134.9946	   5648.4414
    134.9961	   3499.5796
    134.9976	   1457.2499
    134.9990	    210.3720
    135.0005	      0.0000
    135.0020	      0.0000
    135.0035	      0.0000
    135.0050	      0.0000
    136.0646	      0.0000
    136.0661	      0.0000
    136.0677	      0.0000
    136.0692	      0.0000
    136.0707	    508.0168
    136.0722	   1483.7832
    136.0737	   3274.2822
    136.0752	   5195.4395
    136.0767	   5324.5234
    136.0782	   3449.3254
    136.0797	   1627.2828
    136.0812	    564.1964
    136.0827	      0.0000
    136.0842	      0.0000
    136.0857	      0.0000
    136.0872	      0.0000
    141.0577	      0.0000
    141.0592	      0.0000
    141.0608	      0.0000
    141.0624	      0.0000
    141.0640	    486.7654
    141.0656	    867.4780
    141.0672	   1011.5062
    141.0688	    824.3273
    141.0704	    448.6201
    141.0720	      0.0000
    141.0736	      0.0000
    141.0752	      0.0000
    141.0768	      0.0000
    143.0701	      0.0000
    143.0718	      0.0000
    143.0734	      0.0000
    143.0750	      0.0000
    143.0766	    387.3489
    143.0783	   1046.8038
    143.0799	   1739.6233
    143.0815	   2019.6910
    143.0831	   1694.2140
    143.0848	   1002.1088
    143.0864	    396.8596
    143.0880	      0.0000
    143.0896	      0.0000
    143.0913	      0.0000
    143.0929	      0.0000
    149.0133	      0.0000
    149.0150	      0.0000
    149.0167	      0.0000
    149.0184	      0.0000
    149.0202	    539.2754
    149.0219	   1241.5798
    149.0236	   1809.2531
    149.0253	   1835.2615
    149.0271	   1331.1019
    149.0288	    679.8622
    149.0305	      0.0000
    149.0322	      0.0000
    149.0340	      0.0000
    149.0357	      0.0000
    151.0175	      0.0000
    151.0192	      0.0000
    151.0210	      0.0000
    151.0228	      0.0000
    151.0245	    702.0467
    151.0263	   1059.6554
    151.0280	   1157.5787
    151.0298	    915.6650
    151.0316	    480.8714
    151.0333	      0.0000
    151.0350	      0.0000
    151.0368	      0.0000
    151.0386	      0.0000
    155.1052	      0.0000
    155.1070	      0.0000
    155.1088	      0.0000
    155.1107	      0.0000
    155.1125	    394.2427
    155.1143	   1073.8158
    155.1162	   1814.3871
    155.1180	   2118.8486
    155.1198	   1751.2028
    155.1217	    981.8050
    155.1235	    327.3155
    155.1254	      0.0000
    155.1272	      0.0000
    155.1290	      0.0000
    155.1309	      0.0000
    157.0715	      0.0000
    157.0733	      0.0000
    157.0752	      0.0000
    157.0771	      0.0000
    157.0789	    336.1471
    157.0808	    838.1217
    157.0827	   1291.5756
    157.0845	   1386.6443
    157.0864	   1072.6326
    157.0883	    573.6093
    157.0901	      0.0000
    157.0920	      0.0000
    157.0938	      0.0000
    157.0957	      0.0000
    161.0635	      0.0000
    161.0654	      0.0000
    161.0673	      0.0000
    161.0693	      0.0000
    161.0712	    468.5192
    161.0731	    794.2938
    161.0751	    970.7012
    161.0770	    914.3607
    161.0790	    683.2854
    161.0810	      0.0000
    161.0829	      0.0000
    161.0848	      0.0000
    161.0868	      0.0000
    165.0426	      0.0000
    165.0446	      0.0000
    165.0466	      0.0000
    165.0486	      0.0000
    165.0507	    536.6332
    165.0527	    947.5435
    165.0547	   1136.9596
    165.0567	    969.7385
    165.0587	    562.9218
    165.0607	      0.0000
    165.0627	      0.0000
    165.0647	      0.0000
    165.0667	      0.0000
    166.0751	      0.0000
    166.0772	      0.0000
    166.0792	      0.0000
    166.0812	      0.0000
    166.0833	    633.9370
    166.0853	   1239.7515
    166.0873	   1535.0032
    166.0894	   1295.5922
    166.0914	    721.9755
    166.0934	      0.0000
    166.0954	      0.0000
    166.0975	      0.0000
    166.0995	      0.0000
    169.0271	      0.0000
    169.0292	      0.0000
    169.0312	      0.0000
    169.0333	      0.0000
    169.0354	    409.5319
    169.0375	    793.4098
    169.0396	   1003.2457
    169.0417	    881.6462
    169.0438	    521.1677
    169.0459	      0.0000
    169.0480	      0.0000
    169.0501	      0.0000
    169.0522	      0.0000
    182.1145	      0.0000
    182.1169	      0.0000
    182.1192	      0.0000
    182.1215	      0.0000
    182.1239	    650.3182
    182.1262	   1477.3478
    182.1285	   2200.6096
    182.1309	   2306.2019
    182.1332	   1744.3573
    182.1355	    942.7203
    182.1379	    354.7880
    182.1398	      0.0000
    182.1421	      0.0000
    182.1444	      0.0000
    182.1468	      0.0000
    183.0948	      0.0000
    183.0972	      0.0000
    183.0995	      0.0000
    183.1019	      0.0000
    183.1042	    352.8799
    183.1066	   2286.7944
    183.1089	   6265.1270
    183.1113	  10535.5977
    183.1136	  12354.4414
    183.1160	   8836.9863
    183.1183	   4859.8599
    183.1207	   1563.8143
    183.1230	    450.5002
    183.1260	      0.0000
    183.1283	      0.0000
    183.1307	      0.0000
    183.1330	      0.0000
    186.0663	      0.0000
    186.0687	      0.0000
    186.0711	      0.0000
    186.0735	      0.0000
    186.0759	    306.5205
    186.0783	    915.1953
    186.0807	   3376.4187
    186.0831	  10484.2979
    186.0855	  18285.7422
    186.0879	  24330.6641
    186.0904	  19462.9063
    186.0928	  11383.2002
    186.0952	   3805.1292
    186.0976	    660.1525
    186.0998	      0.0000
    186.1022	      0.0000
    186.1046	      0.0000
    186.1070	      0.0000
    187.0765	      0.0000
    187.0789	      0.0000
    187.0813	      0.0000
    187.0838	      0.0000
    187.0862	    527.6595
    187.0886	    895.7495
    187.0911	   1028.9009
    187.0935	    826.7816
    187.0959	    435.8315
    187.0983	      0.0000
    187.1007	      0.0000
    187.1032	      0.0000
    187.1056	      0.0000
    189.0531	      0.0000
    189.0556	      0.0000
    189.0580	      0.0000
    189.0605	      0.0000
    189.0630	    655.6087
    189.0654	   2435.4800
    189.0679	   4346.5386
    189.0704	   5388.3691
    189.0728	   3856.1350
    189.0753	   2018.4438
    189.0778	    421.4791
    189.0803	      0.0000
    189.0828	      0.0000
    189.0852	      0.0000
    189.0877	      0.0000
    193.0812	      0.0000
    193.0837	      0.0000
    193.0863	      0.0000
    193.0888	      0.0000
    193.0914	    346.5779
    193.0939	    889.9120
    193.0965	   1418.2025
    193.0990	   1587.2998
    193.1015	   1278.9270
    193.1041	    714.5784
    193.1066	      0.0000
    193.1092	      0.0000
    193.1117	      0.0000
    193.1143	      0.0000
    196.1273	      0.0000
    196.1299	      0.0000
    196.1325	      0.0000
    196.1352	      0.0000
    196.1378	    518.3286
    196.1404	   1081.1764
    196.1430	   1627.6357
    196.1456	   1799.6351
    196.1482	   1453.9893
    196.1508	    824.9072
    196.1534	    289.1985
    196.1560	      0.0000
    196.1586	      0.0000
    196.1612	      0.0000
    196.1638	      0.0000
    197.1106	      0.0000
    197.1132	      0.0000
    197.1159	      0.0000
    197.1185	      0.0000
    197.1211	    692.5103
    197.1237	   2523.0159
    197.1264	   4432.2627
    197.1290	   5833.6636
    197.1316	   4472.9946
    197.1342	   2503.0715
    197.1369	    522.4397
    197.1394	      0.0000
    197.1420	      0.0000
    197.1447	      0.0000
    197.1473	      0.0000
    200.1213	      0.0000
    200.1240	      0.0000
    200.1267	      0.0000
    200.1293	      0.0000
    200.1320	    711.7504
    200.1347	   2862.3369
    200.1374	   5204.1699
    200.1401	   6922.5088
    200.1428	   5416.1523
    200.1455	   3097.6072
    200.1481	    861.5582
    200.1508	    501.8806
    200.1536	      0.0000
    200.1563	      0.0000
    200.1590	      0.0000
    200.1616	      0.0000
    200.5867	      0.0000
    200.5894	      0.0000
    200.5921	      0.0000
    200.5948	      0.0000
    200.5975	    791.0141
    200.6002	   1598.8602
    200.6029	   2201.6221
    200.6056	   2151.6013
    200.6083	   1463.3822
    200.6110	    629.6956
    200.6139	      0.0000
    200.6166	      0.0000
    200.6193	      0.0000
    200.6220	      0.0000
    201.5904	      0.0000
    201.5932	      0.0000
    201.5959	      0.0000
    201.5986	      0.0000
    201.6013	    421.8477
    201.6040	   1907.4858
    201.6067	   6585.2251
    201.6095	  12529.0098
    201.6122	  18125.2715
    201.6149	  16135.9248
    201.6176	   9879.5381
    201.6203	   4055.4316
    201.6230	    983.6284
    201.6257	    268.1890
    201.6282	      0.0000
    201.6309	      0.0000
    201.6337	      0.0000
    201.6364	      0.0000
    202.0934	      0.0000
    202.0961	      0.0000
    202.0989	      0.0000
    202.1016	      0.0000
    202.1043	    375.3195
    202.1070	    930.9207
    202.1098	   1519.4443
    202.1125	   1800.1183
    202.1152	   1576.6047
    202.1179	    992.2630
    202.1207	    407.5369
    202.1234	      0.0000
    202.1261	      0.0000
    202.1288	      0.0000
    202.1316	      0.0000
    203.1055	      0.0000
    203.1082	      0.0000
    203.1110	      0.0000
    203.1137	      0.0000
    203.1165	    578.4846
    203.1192	   1152.3958
    203.1220	   1469.9429
    203.1247	   1279.8110
    203.1275	    735.7689
    203.1305	      0.0000
    203.1332	      0.0000
    203.1360	      0.0000
    203.1387	      0.0000
    206.0730	      0.0000
    206.0758	      0.0000
    206.0786	      0.0000
    206.0814	      0.0000
    206.0842	    188.4125
    206.0870	    877.9722
    206.0898	   3465.9568
    206.0926	   7145.4434
    206.0954	  10952.3262
    206.0982	  10408.9951
    206.1010	   6439.7959
    206.1038	   2805.4189
    206.1066	    605.4040
    206.1092	      0.0000
    206.1120	      0.0000
    206.1148	      0.0000
    206.1176	      0.0000
    210.1042	      0.0000
    210.1071	      0.0000
    210.1100	      0.0000
    210.1129	      0.0000
    210.1158	    361.1928
    210.1187	   1097.4395
    210.1216	   1930.7532
    210.1245	   2285.1951
    210.1273	   1877.1586
    210.1302	   1035.5221
    210.1331	    376.0345
    210.1360	      0.0000
    210.1389	      0.0000
    210.1418	      0.0000
    210.1447	      0.0000
    211.0928	      0.0000
    211.0957	      0.0000
    211.0986	      0.0000
    211.1015	      0.0000
    211.1044	    545.3841
    211.1073	    920.3773
    211.1102	   1090.4269
    211.1131	    979.0453
    211.1160	    655.4866
    211.1189	      0.0000
    211.1218	      0.0000
    211.1247	      0.0000
    211.1276	      0.0000
    214.1333	      0.0000
    214.1362	      0.0000
    214.1392	      0.0000
    214.1422	      0.0000
    214.1451	    451.3351
    214.1481	   2175.0688
    214.1511	   4664.9932
    214.1541	   7295.1191
    214.1570	   7152.2676
    214.1600	   4478.9336
    214.1630	   2003.2104
    214.1660	    387.5865
    214.1690	      0.0000
    214.1720	      0.0000
    214.1749	      0.0000
    214.1779	      0.0000
    224.0855	      0.0000
    224.0886	      0.0000
    224.0918	      0.0000
    224.0950	      0.0000
    224.0982	    739.3695
    224.1014	   1259.3784
    224.1046	   1410.8086
    224.1077	   1066.1580
    224.1109	    485.8508
    224.1141	      0.0000
    224.1173	      0.0000
    224.1205	      0.0000
    224.1236	      0.0000
    225.1007	      0.0000
    225.1039	      0.0000
    225.1071	      0.0000
    225.1103	      0.0000
    225.1135	    416.1508
    225.1167	   1304.6614
    225.1199	   2762.0225
    225.1231	   4228.1377
    225.1263	   3748.6321
    225.1296	   2128.6296
    225.1328	    736.7526
    225.1361	      0.0000
    225.1393	      0.0000
    225.1425	      0.0000
    225.1457	      0.0000
    228.1099	      0.0000
    228.1132	      0.0000
    228.1164	      0.0000
    228.1197	      0.0000
    228.1230	    435.7421
    228.1262	   1731.5775
    228.1295	   3699.9929
    228.1328	   5829.2427
    228.1360	   6110.9595
    228.1393	   3947.2288
    228.1426	   1803.0975
    228.1458	    221.6307
    228.1491	      0.0000
    228.1524	      0.0000
    228.1556	      0.0000
    228.1589	      0.0000
    231.0930	      0.0000
    231.0964	      0.0000
    231.0997	      0.0000
    231.1030	      0.0000
    231.1064	    583.6178
    231.1097	   1386.5300
    231.1130	   2981.1665
    231.1163	   3800.0588
    231.1197	   2878.7019
    231.1230	   1314.0275
    231.1263	    506.2890
    231.1300	      0.0000
    231.1333	      0.0000
    231.1366	      0.0000
    231.1400	      0.0000
    231.1433	      0.0000
    231.1466	      0.0000
    231.1500	      0.0000
    231.1533	      0.0000
    231.1566	    511.0179
    231.1600	   2345.7183
    231.1633	   8336.2646
    231.1666	  16155.1641
    231.1700	  23946.7227
    231.1733	  22232.3672
    231.1766	  13836.2490
    231.1800	   6092.6875
    231.1833	   1441.2827
    231.1866	    187.0410
    231.1897	      0.0000
