# ljz_20131022_MR_Chym1_ELUTE.mzML
#
# index: 2961
# id: controllerType=0 controllerNumber=1 scan=8680
# scanNumber: 8680
# massAnalyzerType: quadrupole
# scanEvent: 2
# msLevel: 2
# retentionTime: 2281.99
# filterString: FTMS + p NSI d Full ms2 878.72@hcd28.00 [100.00-2710.00]
# mzLow: 99.0035
# mzHigh: 2737.88
# basePeakMZ: 204.087
# basePeakIntensity: 231237
# totalIonCurrent: 1.95836e+006
# precursorCount: 1
# precursor 0: 878.061 1.88071e+006
# binary (2808): 
     99.0035	      0.0000
     99.0045	      0.0000
     99.0054	      0.0000
     99.0063	      0.0000
    109.0208	      0.0000
    109.0219	      0.0000
    109.0230	      0.0000
    109.0241	      0.0000
    109.0251	    474.8571
    109.0262	   1451.4739
    109.0273	   3896.0564
    109.0284	   6186.9463
    109.0295	   6035.2529
    109.0305	   3604.1440
    109.0316	   1278.5787
    109.0327	    671.4999
    109.0341	      0.0000
    109.0352	      0.0000
    109.0362	      0.0000
    109.0373	      0.0000
    110.0618	      0.0000
    110.0629	      0.0000
    110.0640	      0.0000
    110.0651	      0.0000
    110.0662	    661.7991
    110.0673	   1411.3418
    110.0684	   4189.7363
    110.0695	  13281.1201
    110.0706	  25418.0391
    110.0717	  37432.8984
    110.0728	  34158.9102
    110.0739	  20813.9238
    110.0750	   8465.6133
    110.0761	   1394.8739
    110.0772	     11.1729
    110.0782	      0.0000
    110.0793	      0.0000
    110.0804	      0.0000
    110.0815	      0.0000
    115.0298	      0.0000
    115.0310	      0.0000
    115.0322	      0.0000
    115.0333	      0.0000
    115.0345	    817.9473
    115.0357	   1829.4784
    115.0368	   5513.9385
    115.0380	  11022.7637
    115.0392	  16665.9648
    115.0403	  16053.1201
    115.0415	   9972.2266
    115.0427	   4341.7202
    115.0439	    699.8735
    115.0448	      0.0000
    115.0460	      0.0000
    115.0472	      0.0000
    115.0484	      0.0000
    126.0414	      0.0000
    126.0427	      0.0000
    126.0441	      0.0000
    126.0454	      0.0000
    126.0468	   1031.0397
    126.0481	   2139.0627
    126.0494	   3277.6177
    126.0508	   8265.4443
    126.0521	  25212.4277
    126.0535	  52841.5391
    126.0548	  82708.8203
    126.0562	  87076.3828
    126.0575	  57796.4570
    126.0588	  28948.0781
    126.0602	   7114.0815
    126.0615	    527.8629
    126.0630	      0.0000
    126.0643	      0.0000
    126.0656	      0.0000
    126.0670	      0.0000
    127.0271	      0.0000
    127.0284	      0.0000
    127.0298	      0.0000
    127.0311	      0.0000
    127.0325	    865.3893
    127.0338	   1501.8646
    127.0352	   4181.2598
    127.0366	  12821.7979
    127.0379	  23809.4590
    127.0393	  34084.9141
    127.0406	  30071.7676
    127.0420	  18139.4688
    127.0434	   7089.7813
    127.0447	   1098.3350
    127.0461	      0.0000
    127.0471	      0.0000
    127.0485	      0.0000
    127.0498	      0.0000
    127.0512	      0.0000
    127.0526	      0.0000
    127.0539	      0.0000
    127.0553	    887.3096
    127.0566	   2004.5853
    127.0580	   2971.8757
    127.0593	   3011.7122
    127.0607	   2069.9634
    127.0621	    890.6490
    127.0634	      0.0000
    127.0648	      0.0000
    127.0661	      0.0000
    127.0675	      0.0000
    129.0468	      0.0000
    129.0482	      0.0000
    129.0496	      0.0000
    129.0510	      0.0000
    129.0523	    856.0378
    129.0537	   1421.1537
    129.0551	   1586.5493
    129.0565	   1235.6896
    129.0579	    620.7372
    129.0593	      0.0000
    129.0607	      0.0000
    129.0621	      0.0000
    129.0635	      0.0000
    129.0927	      0.0000
    129.0941	      0.0000
    129.0955	      0.0000
    129.0969	      0.0000
    129.0982	    494.0686
    129.0996	   1487.6287
    129.1010	   2787.3311
    129.1024	   3541.5586
    129.1038	   3142.6050
    129.1052	   1891.7074
    129.1066	    710.2805
    129.1079	      0.0000
    129.1093	      0.0000
    129.1107	      0.0000
    129.1121	      0.0000
    133.0330	      0.0000
    133.0345	      0.0000
    133.0360	      0.0000
    133.0374	      0.0000
    133.0389	    934.1795
    133.0403	   2716.3833
    133.0418	   4987.4917
    133.0432	   6712.0854
    133.0447	   5172.1309
    133.0461	   1932.2863
    133.0476	    569.4564
    133.0492	      0.0000
    133.0507	      0.0000
    133.0521	      0.0000
    133.0536	      0.0000
    138.0371	      0.0000
    138.0386	      0.0000
    138.0402	      0.0000
    138.0417	      0.0000
    138.0433	    498.0287
    138.0448	   1431.7429
    138.0463	   3301.1021
    138.0479	   4811.5156
    138.0494	  11481.9561
    138.0510	  35453.0547
    138.0525	  93493.4844
    138.0540	 156521.3281
    138.0556	 193470.9688
    138.0571	 144154.0313
    138.0586	  81534.7734
    138.0602	  24255.1484
    138.0617	   4669.5063
    138.0633	   1126.7708
    138.0646	      0.0000
    138.0661	      0.0000
    138.0677	      0.0000
    138.0692	      0.0000
    138.0892	      0.0000
    138.0908	      0.0000
    138.0923	      0.0000
    138.0939	      0.0000
    138.0954	    776.4607
    138.0969	   1433.2410
    138.0985	   1718.9100
    138.1000	   1482.6503
    138.1015	    951.0529
    138.1036	      0.0000
    138.1051	      0.0000
    138.1067	      0.0000
    138.1082	      0.0000
    139.0459	      0.0000
    139.0475	      0.0000
    139.0490	      0.0000
    139.0506	      0.0000
    139.0521	    562.2520
    139.0537	   1312.9462
    139.0552	   3950.9370
    139.0568	   8123.8926
    139.0584	  12688.2334
    139.0599	  13059.9063
    139.0615	   8421.5195
    139.0630	   3997.0403
    139.0646	    707.3384
    139.0661	      0.0000
    139.0677	      0.0000
    139.0692	      0.0000
    139.0708	      0.0000
    144.0528	      0.0000
    144.0545	      0.0000
    144.0561	      0.0000
    144.0578	      0.0000
    144.0594	   1063.0425
    144.0610	   2738.3621
    144.0627	   8049.4463
    144.0643	  14572.8701
    144.0660	  20393.0039
    144.0676	  17532.3945
    144.0692	  10426.7979
    144.0709	   3760.9219
    144.0725	    361.8782
    144.0739	      0.0000
    144.0756	      0.0000
    144.0772	      0.0000
    144.0788	      0.0000
    145.0350	      0.0000
    145.0367	      0.0000
    145.0383	      0.0000
    145.0400	      0.0000
    145.0417	    600.0866
    145.0433	   1563.5095
    145.0450	   5135.1021
    145.0466	  15575.5713
    145.0483	  26995.4414
    145.0499	  35634.3398
    145.0516	  28215.9063
    145.0533	  16524.9941
    145.0549	   5301.4561
    145.0566	   1152.2350
    145.0580	      0.0000
    145.0596	      0.0000
    145.0613	      0.0000
    145.0629	      0.0000
    146.0423	      0.0000
    146.0440	      0.0000
    146.0457	      0.0000
    146.0474	      0.0000
    146.0490	   1106.8702
    146.0507	   1802.6439
    146.0524	   2095.0166
    146.0541	   1814.5120
    146.0557	   1162.8267
    146.0575	      0.0000
    146.0591	      0.0000
    146.0608	      0.0000
    146.0625	      0.0000
    157.0509	      0.0000
    157.0528	      0.0000
    157.0547	      0.0000
    157.0565	      0.0000
    157.0584	    708.4767
    157.0603	   1279.5990
    157.0621	   1581.0820
    157.0640	   1393.8021
    157.0659	    846.8553
    157.0679	      0.0000
    157.0698	      0.0000
    157.0717	      0.0000
    157.0735	      0.0000
    163.0439	      0.0000
    163.0459	      0.0000
    163.0479	      0.0000
    163.0499	      0.0000
    163.0518	   1009.8132
    163.0538	   3579.7104
    163.0558	  12474.5742
    163.0578	  25261.2090
    163.0597	  38718.4258
    163.0617	  37698.1914
    163.0637	  23821.6758
    163.0657	  10854.2754
    163.0676	   2482.7168
    163.0696	    499.0184
    163.0720	      0.0000
    163.0740	      0.0000
    163.0760	      0.0000
    163.0779	      0.0000
    167.0771	      0.0000
    167.0791	      0.0000
    167.0812	      0.0000
    167.0832	      0.0000
    167.0853	    762.1599
    167.0873	   1894.0609
    167.0894	   5409.3813
    167.0914	   9510.1387
    167.0935	  12584.5000
    167.0955	   9867.3672
    167.0976	   5608.4565
    167.0996	   1491.1165
    167.1016	      0.0000
    167.1033	      0.0000
    167.1053	      0.0000
    167.1074	      0.0000
    167.1094	      0.0000
    168.0436	      0.0000
    168.0457	      0.0000
    168.0477	      0.0000
    168.0498	      0.0000
    168.0519	    431.1097
    168.0539	   1901.1378
    168.0560	   2815.4426
    168.0581	   6478.3145
    168.0601	  19912.8359
    168.0622	  51054.1172
    168.0643	  84906.6719
    168.0663	 102947.0547
    168.0684	  75419.8281
    168.0705	  41941.8438
    168.0725	  12067.3398
    168.0746	   2016.3722
    168.0767	     87.2527
    168.0785	      0.0000
    168.0806	      0.0000
    168.0826	      0.0000
    168.0847	      0.0000
    169.0542	      0.0000
    169.0563	      0.0000
    169.0583	      0.0000
    169.0604	      0.0000
    169.0625	   1154.5262
    169.0646	   3767.4839
    169.0667	   7140.0757
    169.0688	  10143.2549
    169.0709	   8698.6738
    169.0729	   5173.4526
    169.0750	   1868.8394
    169.0771	    713.1006
    169.0792	      0.0000
    169.0813	      0.0000
    169.0834	      0.0000
    169.0855	      0.0000
    179.0782	      0.0000
    179.0804	      0.0000
    179.0827	      0.0000
    179.0850	      0.0000
    179.0872	    738.5221
    179.0895	   1704.6597
    179.0918	   2520.4026
    179.0941	   2630.9949
    179.0963	   1988.6718
    179.0986	   1065.0278
    179.1012	      0.0000
    179.1034	      0.0000
    179.1057	      0.0000
    179.1080	      0.0000
    186.0519	      0.0000
    186.0543	      0.0000
    186.0567	      0.0000
    186.0591	      0.0000
    186.0615	    852.8098
    186.0639	   1226.2690
    186.0663	   1858.2538
    186.0687	   5755.9771
    186.0711	  19140.3828
    186.0735	  37118.4492
    186.0759	  55109.2344
    186.0783	  51385.3789
    186.0808	  32013.0488
    186.0832	  14024.8564
    186.0856	   3537.0542
    186.0880	    910.3373
    186.0901	      0.0000
    186.0926	      0.0000
    186.0950	      0.0000
    186.0974	      0.0000
    187.0619	      0.0000
    187.0643	      0.0000
    187.0668	      0.0000
    187.0692	      0.0000
    187.0716	    427.2245
    187.0741	   1340.9114
    187.0765	   2530.8608
    187.0789	   3319.7644
    187.0813	   3147.2742
    187.0838	   2116.9490
    187.0862	    938.0142
    187.0891	      0.0000
    187.0915	      0.0000
    187.0939	      0.0000
    187.0964	      0.0000
    204.0565	      0.0000
    204.0593	      0.0000
    204.0620	      0.0000
    204.0648	      0.0000
    204.0676	    168.9839
    204.0703	   2812.1194
    204.0731	   5161.8730
    204.0759	  10100.6201
    204.0786	  30273.8594
    204.0814	  92307.5234
    204.0842	 166103.3438
    204.0869	 230241.6563
    204.0897	 194330.2969
    204.0925	 116518.1406
    204.0952	  43966.0195
    204.0980	  10075.6416
    204.1008	   2488.5393
    204.1031	   2951.2661
    204.1059	   1210.8392
    204.1087	   1267.5127
    204.1114	    929.5142
    204.1144	      0.0000
    204.1171	      0.0000
    204.1199	      0.0000
    204.1227	      0.0000
    205.0664	      0.0000
    205.0692	      0.0000
    205.0720	      0.0000
    205.0748	      0.0000
    205.0776	    166.8719
    205.0804	   1591.1770
    205.0832	   5739.0933
    205.0859	  12094.1318
    205.0887	  18939.5137
    205.0915	  19983.3965
    205.0943	  13463.0098
    205.0971	   6924.4072
    205.0999	   1890.5096
    205.1027	    121.4723
    205.1053	      0.0000
    205.1081	      0.0000
    205.1109	      0.0000
    205.1136	      0.0000
    206.0755	      0.0000
    206.0784	      0.0000
    206.0812	      0.0000
    206.0840	      0.0000
    206.0868	   1162.9796
    206.0896	   1844.1323
    206.0924	   2043.5743
    206.0952	   1594.7306
    206.0980	    821.7902
    206.1008	      0.0000
    206.1036	      0.0000
    206.1064	      0.0000
    206.1092	      0.0000
    207.0697	      0.0000
    207.0725	      0.0000
    207.0753	      0.0000
    207.0781	      0.0000
    207.0810	    605.6368
    207.0838	   1401.6163
    207.0866	   1973.2313
    207.0894	   1905.9951
    207.0923	   1269.7484
    207.0951	    534.2138
    207.0980	      0.0000
    207.1008	      0.0000
    207.1036	      0.0000
    207.1065	      0.0000
    215.1176	      0.0000
    215.1206	      0.0000
    215.1236	      0.0000
    215.1266	      0.0000
    215.1295	    420.2064
    215.1325	   1299.2740
    215.1355	   2387.5796
    215.1385	   2971.5583
    215.1415	   2605.2900
    215.1445	   1561.9967
    215.1475	    570.8221
    215.1504	      0.0000
    215.1534	      0.0000
    215.1564	      0.0000
    215.1594	      0.0000
    225.0751	      0.0000
    225.0783	      0.0000
    225.0815	      0.0000
    225.0847	      0.0000
    225.0879	    413.5815
    225.0911	   2558.5784
    225.0943	   5446.3174
    225.0975	   8365.6719
    225.1007	   7670.4907
    225.1039	   4625.7021
    225.1071	   1832.4536
    225.1103	    257.1748
    225.1136	      0.0000
    225.1168	      0.0000
    225.1200	      0.0000
    225.1232	      0.0000
    228.1131	      0.0000
    228.1164	      0.0000
    228.1197	      0.0000
    228.1229	      0.0000
    228.1262	    470.4937
    228.1295	   1339.2670
    228.1328	   2140.1047
    228.1360	   2335.9507
    228.1393	   1834.6143
    228.1426	   1054.9686
    228.1458	      0.0000
    228.1491	      0.0000
    228.1523	      0.0000
    228.1556	      0.0000
    233.1290	      0.0000
    233.1324	      0.0000
    233.1358	      0.0000
    233.1392	      0.0000
    233.1425	    968.5878
    233.1459	   1775.9335
    233.1493	   2140.9692
    233.1527	   1752.9449
    233.1560	    906.3576
    233.1594	      0.0000
    233.1628	      0.0000
    233.1662	      0.0000
    233.1695	      0.0000
    235.0895	      0.0000
    235.0929	      0.0000
    235.0963	      0.0000
    235.0997	      0.0000
    235.1031	    824.4739
    235.1066	   1540.5292
    235.1100	   1735.9501
    235.1134	   1285.5883
    235.1168	    615.8511
    235.1202	      0.0000
    235.1236	      0.0000
    235.1271	      0.0000
    235.1305	      0.0000
    241.0469	      0.0000
    241.0505	      0.0000
    241.0540	      0.0000
    241.0576	      0.0000
    241.0611	   1090.8386
    241.0647	   3017.9922
    241.0682	   5490.1309
    241.0718	   7103.1055
    241.0753	   5348.4185
    241.0789	   2205.1980
    241.0824	    815.1535
    241.0860	      0.0000
    241.0896	      0.0000
    241.0931	      0.0000
    241.0967	      0.0000
    253.0957	      0.0000
    253.0995	      0.0000
    253.1034	      0.0000
    253.1072	      0.0000
    253.1110	    800.2709
    253.1148	   1219.7332
    253.1186	   1478.2507
    253.1225	   1420.1324
    253.1263	   1032.7334
    253.1302	      0.0000
    253.1340	      0.0000
    253.1378	      0.0000
    253.1417	      0.0000
    259.5768	      0.0000
    259.5808	      0.0000
    259.5847	      0.0000
    259.5887	      0.0000
    259.5927	    813.2350
    259.5967	   1284.3385
    259.6006	   1432.6952
    259.6046	   1165.0426
    259.6086	    654.0610
    259.6125	      0.0000
    259.6165	      0.0000
    259.6204	      0.0000
    259.6244	      0.0000
    266.0998	      0.0000
    266.1040	      0.0000
    266.1081	      0.0000
    266.1122	      0.0000
    266.1163	    990.7451
    266.1204	   1606.7828
    266.1245	   1793.7609
    266.1287	   1395.0505
    266.1328	    689.3928
    266.1370	      0.0000
    266.1411	      0.0000
    266.1452	      0.0000
    266.1493	      0.0000
    280.0836	      0.0000
    280.0881	      0.0000
    280.0925	      0.0000
    280.0970	      0.0000
    280.1014	    633.2632
    280.1059	   1329.2467
    280.1103	   1784.2855
    280.1148	   1650.6832
    280.1192	   1017.4577
    280.1237	      0.0000
    280.1282	      0.0000
    280.1326	      0.0000
    280.1371	      0.0000
    297.1235	      0.0000
    297.1284	      0.0000
    297.1332	      0.0000
    297.1381	      0.0000
    297.1429	    517.8702
    297.1478	   1156.7627
    297.1526	   1559.0408
    297.1575	   1433.3774
    297.1624	    874.8749
    297.1672	      0.0000
    297.1721	      0.0000
    297.1769	      0.0000
    297.1818	      0.0000
    298.0633	      0.0000
    298.0682	      0.0000
    298.0731	      0.0000
    298.0780	      0.0000
    298.0828	    425.0714
    298.0877	   1228.5643
    298.0926	   2059.0479
    298.0975	   2368.2664
    298.1024	   1967.4430
    298.1073	   1179.0035
    298.1121	    485.0429
    298.1170	      0.0000
    298.1219	      0.0000
    298.1268	      0.0000
    298.1316	      0.0000
    308.0706	      0.0000
    308.0758	      0.0000
    308.0809	      0.0000
    308.0860	      0.0000
    308.0912	    601.2231
    308.0963	   1630.7136
    308.1014	   2940.2324
    308.1065	   3580.4231
    308.1117	   3028.9866
    308.1168	   1734.2162
    308.1219	    619.8384
    308.1271	      0.0000
    308.1322	      0.0000
    308.1373	      0.0000
    308.1425	      0.0000
    309.0578	      0.0000
    309.0629	      0.0000
    309.0681	      0.0000
    309.0732	      0.0000
    309.0784	    958.8525
    309.0835	   2191.9216
    309.0887	   3158.1423
    309.0938	   3088.2017
    309.0990	   2051.2576
    309.1042	    866.0727
    309.1094	      0.0000
    309.1146	      0.0000
    309.1197	      0.0000
    309.1249	      0.0000
    325.1244	      0.0000
    325.1300	      0.0000
    325.1356	      0.0000
    325.1411	      0.0000
    325.1467	    701.4559
    325.1522	   2059.9636
    325.1578	   5058.4448
    325.1634	   6162.8442
    325.1689	   4297.3677
    325.1745	   2058.4590
    325.1801	    798.0240
    325.1856	      0.0000
    325.1912	      0.0000
    325.1968	      0.0000
    325.2023	      0.0000
    326.0718	      0.0000
    326.0774	      0.0000
    326.0830	      0.0000
    326.0886	      0.0000
    326.0942	    627.7887
    326.0998	   2850.1545
    326.1054	   9401.8154
    326.1109	  16718.3262
    326.1165	  22831.5332
    326.1221	  18687.8164
    326.1277	  10963.1641
    326.1333	   3876.9675
    326.1389	    735.6526
    326.1446	      0.0000
    326.1501	      0.0000
    326.1557	      0.0000
    326.1613	      0.0000
    350.6401	      0.0000
    350.6463	      0.0000
    350.6525	      0.0000
    350.6588	      0.0000
    350.6650	    755.9664
    350.6712	   1182.7900
    350.6775	   1358.1416
    350.6837	   1136.4985
    350.6899	    639.3282
    350.6961	      0.0000
    350.7024	      0.0000
    350.7086	      0.0000
    350.7148	      0.0000
    353.1131	      0.0000
    353.1194	      0.0000
    353.1257	      0.0000
    353.1320	      0.0000
    353.1383	   1062.8251
    353.1446	   3083.7407
    353.1509	   5615.9600
    353.1572	   7584.4922
    353.1635	   6196.6226
    353.1698	   3711.2688
    353.1761	    970.6722
    353.1824	      0.0000
    353.1887	      0.0000
    353.1950	      0.0000
    353.2013	      0.0000
    354.0591	      0.0000
    354.0654	      0.0000
    354.0718	      0.0000
    354.0781	      0.0000
    354.0844	    641.3428
    354.0907	   1263.5017
    354.0970	   1583.3557
    354.1034	   1375.8523
    354.1097	    816.2502
    354.1173	      0.0000
    354.1236	      0.0000
    354.1299	      0.0000
    354.1362	      0.0000
    366.0803	      0.0000
    366.0869	      0.0000
    366.0936	      0.0000
    366.1002	      0.0000
    366.1069	    413.2378
    366.1135	   1237.6774
    366.1202	   4360.3813
    366.1268	  13585.7842
    366.1335	  24286.4160
    366.1401	  33208.3750
    366.1467	  27422.0762
    366.1534	  16266.0713
    366.1600	   5704.1421
    366.1667	   1051.7832
    366.1722	      0.0000
    366.1789	      0.0000
    366.1855	      0.0000
    366.1922	      0.0000
    367.0978	      0.0000
    367.1045	      0.0000
    367.1112	      0.0000
    367.1178	      0.0000
    367.1245	    716.1658
    367.1312	   1880.7930
    367.1379	   3163.8345
    367.1445	   3653.4963
    367.1512	   2974.2725
    367.1579	   1662.1527
    367.1646	    593.7906
