# ljz_20131022_MR_Chym1_ELUTE.mzML
#
# index: 5300
# id: controllerType=0 controllerNumber=1 scan=11682
# scanNumber: 11682
# massAnalyzerType: quadrupole
# scanEvent: 2
# msLevel: 2
# retentionTime: 2820.46
# filterString: FTMS + p NSI d Full ms2 1123.96@hcd28.00 [100.00-2315.00]
# mzLow: 99.0035
# mzHigh: 2338.76
# basePeakMZ: 204.087
# basePeakIntensity: 358322
# totalIonCurrent: 1.67727e+006
# precursorCount: 1
# precursor 0: 1123.46 875101
# binary (1455): 
     99.0035	      0.0000
     99.0044	      0.0000
     99.0053	      0.0000
     99.0063	      0.0000
    115.0307	      0.0000
    115.0319	      0.0000
    115.0331	      0.0000
    115.0342	      0.0000
    115.0354	    378.6437
    115.0366	   1190.1241
    115.0377	   2178.6653
    115.0389	   2796.8984
    115.0401	   2621.7092
    115.0412	   1777.1691
    115.0424	    825.1986
    115.0435	      0.0000
    115.0447	      0.0000
    115.0459	      0.0000
    115.0471	      0.0000
    126.0413	      0.0000
    126.0426	      0.0000
    126.0439	      0.0000
    126.0453	      0.0000
    126.0466	    766.7457
    126.0480	   1815.0281
    126.0493	   2392.9475
    126.0507	   6377.1611
    126.0520	  21516.8535
    126.0533	  47630.4023
    126.0547	  75885.8984
    126.0560	  81660.6406
    126.0574	  54846.9961
    126.0587	  27937.1641
    126.0601	   7352.6587
    126.0614	   1213.6027
    126.0627	    402.4373
    126.0644	      0.0000
    126.0658	      0.0000
    126.0671	      0.0000
    126.0685	      0.0000
    127.0299	      0.0000
    127.0313	      0.0000
    127.0326	      0.0000
    127.0340	      0.0000
    127.0353	   1146.5494
    127.0367	   4177.4863
    127.0381	   8520.7930
    127.0394	  13047.0010
    127.0408	  12431.7588
    127.0421	   7534.3521
    127.0435	   3080.5674
    127.0449	    301.8494
    127.0458	      0.0000
    127.0471	   1304.0315
    127.0485	   1382.1587
    127.0498	   1302.6423
    127.0512	   1134.6089
    127.0526	      0.0000
    127.0539	      0.0000
    127.0553	      0.0000
    127.0566	    543.1678
    127.0580	   1348.7518
    127.0594	   1836.6732
    127.0607	   1615.3354
    127.0621	    922.9539
    127.0634	      0.0000
    127.0648	      0.0000
    127.0661	      0.0000
    127.0675	      0.0000
    138.0386	      0.0000
    138.0401	      0.0000
    138.0416	      0.0000
    138.0432	      0.0000
    138.0447	      0.0000
    138.0462	   2252.5251
    138.0478	   3802.7244
    138.0493	  11344.6035
    138.0509	  38022.8398
    138.0524	 110460.8984
    138.0539	 187919.1563
    138.0555	 242322.9375
    138.0570	 187716.2344
    138.0586	 109825.3125
    138.0601	  35821.2852
    138.0616	   8626.9678
    138.0632	   1734.8040
    138.0647	   1240.0670
    138.0662	      0.0000
    138.0677	      0.0000
    138.0692	      0.0000
    138.0708	      0.0000
    138.0723	      0.0000
    138.0738	      0.0000
    138.0754	      0.0000
    138.0769	      0.0000
    138.0785	      0.0000
    138.0805	      0.0000
    138.0820	      0.0000
    138.0835	      0.0000
    138.0851	      0.0000
    139.0474	      0.0000
    139.0490	      0.0000
    139.0505	      0.0000
    139.0521	      0.0000
    139.0536	   1055.2023
    139.0552	   3476.7778
    139.0568	   7203.4946
    139.0583	  11153.5732
    139.0599	  10911.6885
    139.0614	   6695.9761
    139.0630	   2839.4553
    139.0645	    217.8549
    139.0659	      0.0000
    139.0675	      0.0000
    139.0690	      0.0000
    139.0706	      0.0000
    144.0526	      0.0000
    144.0543	      0.0000
    144.0559	      0.0000
    144.0576	      0.0000
    144.0592	    352.4227
    144.0608	   1884.1453
    144.0625	   7039.0850
    144.0641	  13563.1182
    144.0658	  19893.9492
    144.0674	  17654.4609
    144.0690	  10587.5273
    144.0707	   4094.9939
    144.0723	    739.3970
    144.0737	    274.7265
    144.0753	   2007.1743
    144.0770	   1779.8866
    144.0786	   1311.5741
    144.0802	   1054.3252
    144.0819	      0.0000
    144.0835	      0.0000
    144.0852	      0.0000
    144.0868	      0.0000
    145.0365	      0.0000
    145.0381	      0.0000
    145.0398	      0.0000
    145.0414	      0.0000
    145.0431	    344.1075
    145.0448	   1831.7745
    145.0464	   6773.6836
    145.0481	  12691.1025
    145.0497	  17775.6836
    145.0514	  14857.0742
    145.0530	   8779.5713
    145.0547	   3137.4045
    145.0564	    712.4885
    145.0580	      0.0000
    145.0596	      0.0000
    145.0613	      0.0000
    145.0629	      0.0000
    146.0507	      0.0000
    146.0524	      0.0000
    146.0541	      0.0000
    146.0557	      0.0000
    146.0574	   1102.2390
    146.0591	   2099.3247
    146.0608	   2681.0703
    146.0624	   2412.2725
    146.0641	   1483.5278
    146.0658	    580.4410
    146.0675	      0.0000
    146.0692	      0.0000
    146.0708	      0.0000
    146.0725	      0.0000
    159.0791	      0.0000
    159.0810	      0.0000
    159.0829	      0.0000
    159.0848	      0.0000
    159.0867	    946.4841
    159.0886	   1901.6561
    159.0905	   2616.9707
    159.0924	   2538.7197
    159.0943	   1695.2504
    159.0962	    670.7357
    159.0982	      0.0000
    159.1001	      0.0000
    159.1020	      0.0000
    159.1039	      0.0000
    163.0438	      0.0000
    163.0457	      0.0000
    163.0477	      0.0000
    163.0497	      0.0000
    163.0517	    917.4252
    163.0536	   3751.1433
    163.0556	  13418.3271
    163.0576	  28037.7148
    163.0596	  43726.5156
    163.0615	  44351.8945
    163.0635	  28769.5371
    163.0655	  13938.5928
    163.0675	   3548.8994
    163.0694	    651.1324
    163.0713	      0.0000
    163.0733	      0.0000
    163.0753	      0.0000
    163.0772	      0.0000
    164.0515	      0.0000
    164.0535	      0.0000
    164.0555	      0.0000
    164.0575	      0.0000
    164.0595	    799.7465
    164.0615	   1665.2026
    164.0634	   2125.7190
    164.0654	   1775.4309
    164.0674	    901.1224
    164.0695	      0.0000
    164.0715	      0.0000
    164.0735	      0.0000
    164.0755	      0.0000
    168.0455	      0.0000
    168.0475	      0.0000
    168.0496	      0.0000
    168.0517	      0.0000
    168.0537	   1001.5001
    168.0558	   1440.2943
    168.0579	   5168.4639
    168.0599	  19892.0176
    168.0620	  57214.5391
    168.0641	  97235.9922
    168.0661	 122588.3672
    168.0682	  92647.4922
    168.0703	  53128.5039
    168.0723	  16896.6895
    168.0744	   4475.8247
    168.0765	   1768.0624
    168.0785	   1489.0172
    168.0806	     78.9303
    168.0828	      0.0000
    168.0849	      0.0000
    168.0870	      0.0000
    168.0890	      0.0000
    169.0523	      0.0000
    169.0544	      0.0000
    169.0565	      0.0000
    169.0586	      0.0000
    169.0607	    777.3715
    169.0627	   1272.5092
    169.0648	   4625.8818
    169.0669	   8624.4160
    169.0690	  12371.4170
    169.0711	  11158.8477
    169.0732	   6845.2793
    169.0752	   2830.5405
    169.0773	    389.7372
    169.0793	      0.0000
    169.0814	      0.0000
    169.0834	      0.0000
    169.0855	      0.0000
    186.0516	      0.0000
    186.0541	      0.0000
    186.0565	      0.0000
    186.0589	      0.0000
    186.0613	    977.5021
    186.0637	   1496.1875
    186.0661	   1951.6807
    186.0685	   6514.3994
    186.0709	  23023.9355
    186.0733	  46425.7500
    186.0757	  70753.6719
    186.0781	  68753.5625
    186.0805	  43868.2969
    186.0829	  20606.5254
    186.0854	   5812.5703
    186.0878	   1841.9514
    186.0902	   1298.2002
    186.0926	    544.9786
    186.0950	      0.0000
    186.0974	      0.0000
    186.0998	      0.0000
    186.1022	      0.0000
    187.0644	      0.0000
    187.0668	      0.0000
    187.0692	      0.0000
    187.0716	      0.0000
    187.0741	   1068.8219
    187.0765	   2083.1897
    187.0789	   2868.6472
    187.0813	   2900.6311
    187.0838	   2164.1106
    187.0862	   1126.4840
    187.0886	      0.0000
    187.0911	      0.0000
    187.0935	      0.0000
    187.0959	      0.0000
    188.0511	      0.0000
    188.0536	      0.0000
    188.0560	      0.0000
    188.0585	      0.0000
    188.0609	    340.3928
    188.0633	   2246.9490
    188.0658	   7621.6553
    188.0682	  13858.8447
    188.0707	  19321.8184
    188.0731	  16478.9746
    188.0756	   9923.9014
    188.0780	   3941.3184
    188.0805	    756.8828
    188.0829	      0.0000
    188.0854	      0.0000
    188.0878	      0.0000
    188.0903	      0.0000
    199.0675	      0.0000
    199.0702	      0.0000
    199.0729	      0.0000
    199.0755	      0.0000
    199.0782	    833.9879
    199.0808	   1642.0864
    199.0835	   1913.1500
    199.0862	   1416.8162
    199.0888	    586.0092
    199.0916	      0.0000
    199.0942	      0.0000
    199.0969	      0.0000
    199.0996	      0.0000
    203.1248	      0.0000
    203.1275	      0.0000
    203.1303	      0.0000
    203.1330	      0.0000
    203.1358	   1043.9807
    203.1385	   1688.8732
    203.1413	   1878.1086
    203.1440	   1480.7875
    203.1468	    788.1140
    203.1495	      0.0000
    203.1523	      0.0000
    203.1550	      0.0000
    203.1578	      0.0000
    203.9981	      0.0000
    204.0009	      0.0000
    204.0036	      0.0000
    204.0064	      0.0000
    204.0091	      0.0000
    204.0119	      0.0000
    204.0147	      0.0000
    204.0174	      0.0000
    204.0202	      0.0000
    204.0231	      0.0000
    204.0258	      0.0000
    204.0286	      0.0000
    204.0314	      0.0000
    204.0535	      0.0000
    204.0563	      0.0000
    204.0590	      0.0000
    204.0618	      0.0000
    204.0646	    193.2443
    204.0673	   2393.3257
    204.0701	   5470.5259
    204.0728	   7284.6753
    204.0756	  11772.4365
    204.0784	  39327.5703
    204.0811	 130522.5000
    204.0839	 245327.2656
    204.0867	 354085.6250
    204.0894	 315896.9375
    204.0922	 194322.5625
    204.0950	  82211.4063
    204.0977	  22380.2383
    204.1005	   7482.9834
    204.1033	   6427.1143
    204.1060	   3354.8506
    204.1088	   3174.4373
    204.1116	      0.0000
    204.1135	      0.0000
    204.1163	      0.0000
    204.1190	      0.0000
    204.1218	      0.0000
    205.0684	      0.0000
    205.0712	      0.0000
    205.0739	      0.0000
    205.0767	      0.0000
    205.0795	      0.0000
    205.0823	   3195.2234
    205.0851	   9672.0225
    205.0879	  16681.7168
    205.0907	  23498.7305
    205.0934	  23120.8750
    205.0962	  19100.2754
    205.0990	  12226.9590
    205.1018	   5949.3628
    205.1046	   1079.3105
    205.1081	      0.0000
    205.1109	      0.0000
    205.1137	      0.0000
    205.1164	      0.0000
    206.0756	      0.0000
    206.0784	      0.0000
    206.0812	      0.0000
    206.0840	      0.0000
    206.0868	   1070.4645
    206.0896	   1667.3345
    206.0924	   1845.3516
    206.0952	   1420.2874
    206.0980	    664.0377
    206.1009	      0.0000
    206.1037	      0.0000
    206.1065	      0.0000
    206.1093	      0.0000
    228.1132	      0.0000
    228.1164	      0.0000
    228.1197	      0.0000
    228.1230	      0.0000
    228.1262	    514.5905
    228.1295	   1296.0200
    228.1328	   1906.8177
    228.1360	   1907.2772
    228.1393	   1289.0082
    228.1426	    502.8993
    228.1459	      0.0000
    228.1492	      0.0000
    228.1524	      0.0000
    228.1557	      0.0000
    269.0600	      0.0000
    269.0642	      0.0000
    269.0684	      0.0000
    269.0726	      0.0000
    269.0768	    399.7965
    269.0809	   1292.6814
    269.0851	   2277.3406
    269.0893	   2674.1216
    269.0935	   2172.7463
    269.0977	   1163.6461
    269.1011	      0.0000
    269.1053	      0.0000
    269.1095	      0.0000
    269.1137	      0.0000
    276.1019	      0.0000
    276.1063	      0.0000
    276.1106	      0.0000
    276.1150	      0.0000
    276.1193	    502.9105
    276.1237	   3025.9663
    276.1281	   6890.2925
    276.1324	  10945.4063
    276.1368	  11213.2637
    276.1411	   7271.1113
    276.1455	   3488.6257
    276.1498	    780.3132
    276.1556	      0.0000
    276.1599	      0.0000
    276.1643	      0.0000
    276.1687	      0.0000
    286.0788	      0.0000
    286.0834	      0.0000
    286.0880	      0.0000
    286.0926	      0.0000
    286.0972	    197.1595
    286.1018	   1520.0286
    286.1064	   5565.3657
    286.1110	  10261.8750
    286.1156	  14204.8291
    286.1202	  11688.1553
    286.1247	   6817.6631
    286.1293	   2225.2759
    286.1339	    228.0281
    286.1380	      0.0000
    286.1426	      0.0000
    286.1472	      0.0000
    286.1518	      0.0000
    295.0696	      0.0000
    295.0744	      0.0000
    295.0792	      0.0000
    295.0840	      0.0000
    295.0888	   1003.4963
    295.0936	   2133.6680
    295.0984	   3111.7395
    295.1032	   3246.7766
    295.1080	   2407.5632
    295.1128	   1176.6501
    295.1178	      0.0000
    295.1227	      0.0000
    295.1275	      0.0000
    295.1323	      0.0000
    340.0852	      0.0000
    340.0912	      0.0000
    340.0971	      0.0000
    340.1031	      0.0000
    340.1090	    652.5557
    340.1150	   1905.7935
    340.1209	   3388.7874
    340.1269	   5893.0850
    340.1328	   3475.6260
    340.1388	   2048.5925
    340.1447	    796.1458
    340.1507	      0.0000
    340.1566	      0.0000
    340.1626	      0.0000
    340.1685	      0.0000
    343.1275	      0.0000
    343.1336	      0.0000
    343.1396	      0.0000
    343.1456	      0.0000
    343.1516	   1113.0322
    343.1577	   1839.8207
    343.1637	   2046.9160
    343.1697	   1567.5144
    343.1758	    760.0065
    343.1818	      0.0000
    343.1878	      0.0000
    343.1938	      0.0000
    343.1999	      0.0000
    357.1056	      0.0000
    357.1120	      0.0000
    357.1184	      0.0000
    357.1248	      0.0000
    357.1312	    901.5950
    357.1376	   2845.5371
    357.1440	   6185.4619
    357.1504	   9635.7080
    357.1568	   9472.2393
    357.1632	   5953.8345
    357.1696	   2681.1753
    357.1760	    796.9627
    357.1828	      0.0000
    357.1892	      0.0000
    357.1956	      0.0000
    357.2020	      0.0000
    366.0861	      0.0000
    366.0927	      0.0000
    366.0994	      0.0000
    366.1060	      0.0000
    366.1127	    734.7072
    366.1193	   3977.6316
    366.1259	  13888.2002
    366.1326	  25901.5645
    366.1392	  37153.9102
    366.1459	  32939.8867
    366.1525	  20165.8164
    366.1592	   8414.7168
    366.1658	   1898.3441
    366.1725	    125.7637
    366.1789	      0.0000
    366.1855	      0.0000
    366.1922	      0.0000
    366.1988	      0.0000
    367.1045	      0.0000
    367.1112	      0.0000
    367.1179	      0.0000
    367.1245	      0.0000
    367.1312	   1052.4656
    367.1379	   1873.3167
    367.1445	   2155.0994
    367.1512	   1678.0480
    367.1579	    814.2595
    367.1645	      0.0000
    367.1712	      0.0000
    367.1779	      0.0000
    367.1846	      0.0000
    386.1200	      0.0000
    386.1272	      0.0000
    386.1344	      0.0000
    386.1415	      0.0000
    386.1487	    945.6947
    386.1559	   2289.1316
    386.1631	   4701.5327
    386.1703	   6329.4600
    386.1775	   4889.3491
    386.1847	   2216.0544
    386.1919	    931.9927
    386.1997	      0.0000
    386.2069	      0.0000
    386.2141	      0.0000
    386.2213	      0.0000
    469.1479	      0.0000
    469.1575	      0.0000
    469.1671	      0.0000
    469.1768	      0.0000
    469.1864	   1286.4740
    469.1960	   2107.4236
    469.2057	   2455.4167
    469.2153	   2091.7710
    469.2250	   1291.6576
    469.2346	      0.0000
    469.2443	      0.0000
    469.2539	      0.0000
    469.2635	      0.0000
    472.1113	      0.0000
    472.1210	      0.0000
    472.1307	      0.0000
    472.1404	      0.0000
    472.1502	    684.7411
    472.1599	   3492.4102
    472.1696	   6841.2275
    472.1794	   9802.1670
    472.1891	   8344.6523
    472.1988	   5036.7573
    472.2086	   1986.8679
    472.2183	    686.1318
    472.2280	      0.0000
    472.2378	      0.0000
    472.2475	      0.0000
    472.2572	      0.0000
    490.1972	      0.0000
    490.2075	      0.0000
    490.2178	      0.0000
    490.2281	      0.0000
    490.2384	   1233.1827
    490.2487	   2112.5151
    490.2590	   2593.2476
    490.2693	   2325.9956
    490.2796	   1460.2372
    490.2899	    589.5192
    490.3002	      0.0000
    490.3105	      0.0000
    490.3208	      0.0000
    490.3311	      0.0000
    497.1786	      0.0000
    497.1891	      0.0000
    497.1997	      0.0000
    497.2102	      0.0000
    497.2207	   1338.6890
    497.2312	   2147.6550
    497.2417	   2343.0642
    497.2522	   1816.0774
    497.2628	    969.4679
    497.2735	      0.0000
    497.2841	      0.0000
    497.2946	      0.0000
    497.3051	      0.0000
    524.1035	      0.0000
    524.1149	      0.0000
    524.1263	      0.0000
    524.1377	      0.0000
    524.1491	    912.3571
    524.1604	   1893.9368
    524.1718	   2519.9380
    524.1832	   2285.8271
    524.1946	   1368.5342
    524.2060	      0.0000
    524.2174	      0.0000
    524.2287	      0.0000
    524.2401	      0.0000
    528.1212	      0.0000
    528.1327	      0.0000
    528.1442	      0.0000
    528.1557	      0.0000
    528.1672	   1261.3755
    528.1788	   2363.4629
    528.1903	   2819.8501
    528.2018	   2256.5720
    528.2133	   1146.0132
    528.2249	      0.0000
    528.2364	      0.0000
    528.2479	      0.0000
    528.2594	      0.0000
    568.1865	      0.0000
    568.1993	      0.0000
    568.2122	      0.0000
    568.2250	      0.0000
    568.2379	    477.6876
    568.2507	   1629.0948
    568.2636	   3215.3293
    568.2764	   5893.1309
    568.2893	   4797.9971
    568.3021	   2313.4407
    568.3150	    942.5275
    568.3278	      0.0000
    568.3407	      0.0000
    568.3535	      0.0000
    568.3664	      0.0000
    569.0997	      0.0000
    569.1126	      0.0000
    569.1255	      0.0000
    569.1383	      0.0000
    569.1512	    474.1598
    569.1641	   1535.0728
    569.1770	   3053.4189
    569.1899	   5769.5112
    569.2027	   3621.0293
    569.2156	   2057.0476
    569.2285	    670.5685
    569.2414	    587.3277
    569.2543	   1621.0814
    569.2671	   2546.0737
    569.2800	   2460.0903
    569.2929	   1553.6854
    569.3058	    600.3783
    569.3141	      0.0000
    569.3270	      0.0000
    569.3398	      0.0000
    569.3527	      0.0000
    586.1185	      0.0000
    586.1320	      0.0000
    586.1454	      0.0000
    586.1589	      0.0000
    586.1723	    736.8645
    586.1858	   4954.8477
    586.1993	  10551.7910
    586.2127	  16201.2607
    586.2262	  15116.6074
    586.2397	   9459.8291
    586.2531	   4429.0039
    586.2666	   2132.5144
    586.2800	    833.7667
    586.2981	      0.0000
    586.3116	      0.0000
    586.3251	      0.0000
    586.3385	      0.0000
    587.1204	      0.0000
    587.1339	      0.0000
    587.1474	      0.0000
    587.1609	      0.0000
    587.1744	    982.3671
    587.1879	   2398.8281
    587.2014	   5099.0376
    587.2149	   7712.5220
    587.2284	   7301.6147
    587.2419	   4829.2202
    587.2554	   1142.5704
    587.2689	      0.0000
    587.2824	      0.0000
    587.2959	      0.0000
    587.3094	      0.0000
    625.1749	      0.0000
    625.1898	      0.0000
    625.2046	      0.0000
    625.2194	      0.0000
    625.2342	   1376.6818
    625.2491	   2223.0874
    625.2639	   2433.8174
    625.2787	   1845.5048
    625.2936	    902.7837
    625.3084	      0.0000
    625.3232	      0.0000
    625.3381	      0.0000
    625.3529	      0.0000
    640.1778	      0.0000
    640.1932	      0.0000
    640.2085	      0.0000
    640.2239	      0.0000
    640.2393	   1036.0645
    640.2546	   3635.8582
    640.2700	   6476.9434
    640.2854	   9214.2432
    640.3007	   8966.9893
    640.3161	   6036.7793
    640.3315	   3196.2920
    640.3468	    861.9445
    640.3622	      0.0000
    640.3776	      0.0000
    640.3930	      0.0000
    640.4083	      0.0000
    657.2110	      0.0000
    657.2270	      0.0000
    657.2430	      0.0000
    657.2590	      0.0000
    657.2749	   1346.2390
