# ljz_20131022_MR_Chym1_ELUTE.mzML
#
# index: 2989
# id: controllerType=0 controllerNumber=1 scan=8719
# scanNumber: 8719
# massAnalyzerType: quadrupole
# scanEvent: 2
# msLevel: 2
# retentionTime: 2288.92
# filterString: FTMS + p NSI d Full ms2 399.70@hcd28.00 [100.00-835.00]
# mzLow: 99.0036
# mzHigh: 843.495
# basePeakMZ: 334.177
# basePeakIntensity: 393759
# totalIonCurrent: 4.35981e+006
# precursorCount: 1
# precursor 0: 399.699 4.90662e+006
# binary (2398): 
     99.0036	      0.0000
     99.0045	      0.0000
     99.0055	      0.0000
     99.0064	      0.0000
    101.0657	      0.0000
    101.0667	      0.0000
    101.0677	      0.0000
    101.0686	      0.0000
    101.0696	   1709.6042
    101.0705	   3073.4641
    101.0715	   3625.2732
    101.0725	   2950.8684
    101.0734	   1560.6464
    101.0744	      0.0000
    101.0753	      0.0000
    101.0763	      0.0000
    101.0773	      0.0000
    104.0413	      0.0000
    104.0423	      0.0000
    104.0433	      0.0000
    104.0443	      0.0000
    104.0454	      0.0000
    104.0464	      0.0000
    104.0474	      0.0000
    104.0486	   3563.7346
    104.0496	   7748.1128
    104.0506	  21971.7285
    104.0516	  58989.3828
    104.0526	  99178.1172
    104.0536	 124770.1328
    104.0546	  94230.4141
    104.0556	  53747.1367
    104.0566	  15793.0869
    104.0576	   2682.9524
    104.0586	    687.0720
    104.0596	      0.0000
    104.0606	      0.0000
    104.0616	      0.0000
    104.0626	      0.0000
    110.0629	      0.0000
    110.0639	      0.0000
    110.0650	      0.0000
    110.0661	      0.0000
    110.0672	    686.3959
    110.0683	   3690.0955
    110.0694	  13385.1143
    110.0705	  25314.3223
    110.0716	  36112.9648
    110.0727	  30791.2988
    110.0738	  18281.9180
    110.0749	   6480.9072
    110.0760	   1008.5148
    110.0768	      0.0000
    110.0779	      0.0000
    110.0790	      0.0000
    110.0801	      0.0000
    112.0789	      0.0000
    112.0800	      0.0000
    112.0811	      0.0000
    112.0823	      0.0000
    112.0834	    653.6293
    112.0845	   2137.3708
    112.0856	   4061.5203
    112.0868	   5110.5420
    112.0879	   4483.7227
    112.0890	   2695.3071
    112.0901	   1016.7013
    112.0913	      0.0000
    112.0924	      0.0000
    112.0935	      0.0000
    112.0947	      0.0000
    112.1870	      0.0000
    112.1881	      0.0000
    112.1893	      0.0000
    112.1904	      0.0000
    112.1915	   1435.1333
    112.1927	   2499.0813
    112.1938	   2918.3274
    112.1949	   2424.6213
    112.1960	   1379.5344
    112.1971	      0.0000
    112.1982	      0.0000
    112.1994	      0.0000
    112.2005	      0.0000
    117.0582	      0.0000
    117.0594	      0.0000
    117.0606	      0.0000
    117.0618	      0.0000
    117.0630	   1061.9498
    117.0642	   2146.2197
    117.0654	   2784.1230
    117.0666	   2417.4224
    117.0678	   1267.6160
    117.0690	      0.0000
    117.0702	      0.0000
    117.0714	      0.0000
    117.0726	      0.0000
    119.0400	      0.0000
    119.0412	      0.0000
    119.0425	      0.0000
    119.0437	      0.0000
    119.0449	   1150.9204
    119.0462	   2953.4941
    119.0474	   7050.5132
    119.0486	  11185.7490
    119.0499	  11483.6973
    119.0511	   7387.1274
    119.0523	   3228.8838
    119.0535	   1265.5197
    119.0549	      0.0000
    119.0561	      0.0000
    119.0574	      0.0000
    119.0586	      0.0000
    120.0718	      0.0000
    120.0730	      0.0000
    120.0743	      0.0000
    120.0755	      0.0000
    120.0768	   1407.2708
    120.0780	   5746.4683
    120.0792	  12327.4951
    120.0805	  19383.2539
    120.0817	  19169.1309
    120.0830	  11959.9316
    120.0842	   5215.1489
    120.0855	    947.8509
    120.0866	      0.0000
    120.0878	      0.0000
    120.0891	      0.0000
    120.0903	      0.0000
    124.2551	      0.0000
    124.2564	      0.0000
    124.2577	      0.0000
    124.2590	      0.0000
    124.2604	   1347.5637
    124.2617	   2321.7053
    124.2630	   2699.8362
    124.2643	   2240.3857
    124.2656	   1293.1155
    124.2670	      0.0000
    124.2683	      0.0000
    124.2696	      0.0000
    124.2709	      0.0000
    127.0404	      0.0000
    127.0418	      0.0000
    127.0431	      0.0000
    127.0445	      0.0000
    127.0459	   1028.9718
    127.0472	   4554.4512
    127.0486	  11050.2578
    127.0499	  18033.4590
    127.0513	  19532.4082
    127.0526	  12842.0605
    127.0540	   6060.4443
    127.0554	   1009.6971
    127.0572	      0.0000
    127.0585	      0.0000
    127.0599	      0.0000
    127.0612	      0.0000
    129.0918	      0.0000
    129.0932	      0.0000
    129.0946	      0.0000
    129.0960	      0.0000
    129.0974	   1796.4539
    129.0988	   4261.1943
    129.1002	  12203.9648
    129.1016	  21507.3457
    129.1030	  28553.0449
    129.1044	  22326.2617
    129.1058	  12565.5117
    129.1071	   3053.3511
    129.1085	      0.0000
    129.1094	      0.0000
    129.1107	      0.0000
    129.1121	      0.0000
    129.1135	      0.0000
    131.0712	      0.0000
    131.0727	      0.0000
    131.0741	      0.0000
    131.0755	      0.0000
    131.0769	   1179.5048
    131.0784	   2876.5813
    131.0798	   6269.7974
    131.0812	  10283.3975
    131.0826	  10515.6904
    131.0841	   6758.6060
    131.0855	   2833.6448
    131.0869	   1072.0726
    131.0883	      0.0000
    131.0897	      0.0000
    131.0912	      0.0000
    131.0926	      0.0000
    132.0935	      0.0000
    132.0949	      0.0000
    132.0963	      0.0000
    132.0978	      0.0000
    132.0992	   1752.8903
    132.1007	   2941.8896
    132.1021	   3512.1604
    132.1035	   3128.6660
    132.1050	   2022.4626
    132.1066	      0.0000
    132.1080	      0.0000
    132.1095	      0.0000
    132.1109	      0.0000
    136.0603	      0.0000
    136.0618	      0.0000
    136.0633	      0.0000
    136.0648	      0.0000
    136.0663	   1319.3062
    136.0678	   3643.0364
    136.0693	   5319.7075
    136.0708	  13402.4346
    136.0724	  42399.8047
    136.0739	  88132.8203
    136.0754	 137061.7188
    136.0769	 139741.2500
    136.0784	  90668.2813
    136.0799	  43876.3438
    136.0814	  10688.5566
    136.0829	   1853.3408
    136.0842	      0.0000
    136.0857	      0.0000
    136.0872	      0.0000
    136.0887	      0.0000
    137.0683	      0.0000
    137.0698	      0.0000
    137.0713	      0.0000
    137.0728	      0.0000
    137.0744	    894.8115
    137.0759	   2779.0327
    137.0774	   6998.7793
    137.0789	  11358.3398
    137.0805	  11011.9160
    137.0820	   6523.4482
    137.0835	   2787.6819
    137.0850	   1014.1008
    137.0868	      0.0000
    137.0883	      0.0000
    137.0898	      0.0000
    137.0913	      0.0000
    142.0467	      0.0000
    142.0483	      0.0000
    142.0499	      0.0000
    142.0515	      0.0000
    142.0531	   1001.4260
    142.0548	   2492.5752
    142.0564	   9101.7607
    142.0580	  28825.8926
    142.0596	  52695.2930
    142.0612	  74412.6016
    142.0628	  64613.1797
    142.0644	  39195.5547
    142.0660	  15731.3877
    142.0676	   3342.1335
    142.0692	     54.2793
    142.0706	      0.0000
    142.0722	      0.0000
    142.0738	      0.0000
    142.0754	      0.0000
    145.0497	      0.0000
    145.0513	      0.0000
    145.0530	      0.0000
    145.0546	      0.0000
    145.0563	   1341.3163
    145.0580	   3118.7793
    145.0596	   5202.2144
    145.0613	   6290.5483
    145.0629	   5629.7119
    145.0646	   3713.7737
    145.0662	   1764.3428
    145.0679	      0.0000
    145.0695	      0.0000
    145.0712	      0.0000
    145.0729	      0.0000
    156.0550	      0.0000
    156.0568	      0.0000
    156.0586	      0.0000
    156.0605	      0.0000
    156.0623	   1791.9031
    156.0642	   3370.3958
    156.0660	   4020.4409
    156.0679	   3081.5149
    156.0697	   1312.1665
    156.0716	      0.0000
    156.0735	      0.0000
    156.0753	      0.0000
    156.0772	      0.0000
    159.0639	      0.0000
    159.0658	      0.0000
    159.0677	      0.0000
    159.0696	      0.0000
    159.0715	   1477.0557
    159.0734	   3313.9924
    159.0753	   4977.2002
    159.0772	   5372.9658
    159.0791	   4212.6582
    159.0810	   2336.8508
    159.0829	    923.0382
    159.0853	      0.0000
    159.0872	      0.0000
    159.0891	      0.0000
    159.0910	      0.0000
    165.0390	      0.0000
    165.0410	      0.0000
    165.0431	      0.0000
    165.0451	      0.0000
    165.0471	   1442.7255
    165.0491	   6070.4414
    165.0511	  17838.4102
    165.0531	  30733.3320
    165.0551	  40699.6875
    165.0571	  32590.4102
    165.0591	  19020.4863
    165.0612	   6071.7383
    165.0632	    540.6486
    165.0647	      0.0000
    165.0667	      0.0000
    165.0687	      0.0000
    165.0708	      0.0000
    166.0751	      0.0000
    166.0772	      0.0000
    166.0792	      0.0000
    166.0812	      0.0000
    166.0833	   1507.7616
    166.0853	   3030.3306
    166.0873	   3861.7681
    166.0893	   3452.6868
    166.0914	   2145.5730
    166.0934	      0.0000
    166.0955	      0.0000
    166.0975	      0.0000
    166.0995	      0.0000
    173.1166	      0.0000
    173.1188	      0.0000
    173.1209	      0.0000
    173.1231	      0.0000
    173.1253	   1863.0011
    173.1274	   2921.7915
    173.1296	   3100.7485
    173.1317	   2286.6912
    173.1339	   1072.9021
    173.1362	      0.0000
    173.1383	      0.0000
    173.1405	      0.0000
    173.1427	      0.0000
    182.0634	      0.0000
    182.0657	      0.0000
    182.0680	      0.0000
    182.0703	      0.0000
    182.0727	   1472.3859
    182.0750	   6485.5601
    182.0773	  20400.9043
    182.0797	  35261.2969
    182.0820	  44589.8750
    182.0843	  33243.9453
    182.0867	  18572.4629
    182.0890	   5302.9414
    182.0913	   1358.7982
    182.0935	      0.0000
    182.0959	      0.0000
    182.0982	      0.0000
    182.1005	      0.0000
    183.0623	      0.0000
    183.0647	      0.0000
    183.0670	      0.0000
    183.0694	      0.0000
    183.0717	    914.3715
    183.0741	   2108.5164
    183.0764	   2916.7761
    183.0788	   2816.1448
    183.0811	   1987.8132
    183.0835	      0.0000
    183.0858	      0.0000
    183.0882	      0.0000
    183.0905	      0.0000
    185.1164	      0.0000
    185.1188	      0.0000
    185.1212	      0.0000
    185.1235	      0.0000
    185.1259	   1627.3536
    185.1283	   2845.8970
    185.1307	   3017.9353
    185.1331	   2057.0999
    185.1355	    804.6961
    185.1379	      0.0000
    185.1403	      0.0000
    185.1427	      0.0000
    185.1451	      0.0000
    198.0749	      0.0000
    198.0775	      0.0000
    198.0801	      0.0000
    198.0828	      0.0000
    198.0854	   1597.9890
    198.0881	   3548.2336
    198.0907	   5504.2993
    198.0934	   6186.3813
    198.0960	   5076.7583
    198.0987	   2956.7722
    198.1013	   1130.1549
    198.1039	      0.0000
    198.1066	      0.0000
    198.1092	      0.0000
    198.1119	      0.0000
    199.0569	      0.0000
    199.0595	      0.0000
    199.0622	      0.0000
    199.0649	      0.0000
    199.0675	   1383.4379
    199.0702	   2321.3818
    199.0728	   2777.7717
    199.0755	   2504.6316
    199.0782	   1657.8628
    199.0808	      0.0000
    199.0835	      0.0000
    199.0862	      0.0000
    199.0888	      0.0000
    200.0489	      0.0000
    200.0515	      0.0000
    200.0542	      0.0000
    200.0569	      0.0000
    200.0596	   1133.0530
    200.0623	   2999.5217
    200.0650	   4825.5938
    200.0677	   5250.5679
    200.0703	   3935.7344
    200.0730	   1912.1390
    200.0757	      0.0000
    200.0784	      0.0000
    200.0811	      0.0000
    200.0838	      0.0000
    200.0864	      0.0000
    200.0891	      0.0000
    200.0918	      0.0000
    200.0945	   1176.1427
    200.0972	   5784.7041
    200.0999	  11122.4570
    200.1026	  16276.4980
    200.1052	  14740.8633
    200.1079	   8999.0264
    200.1106	   3542.7690
    200.1133	   1403.2025
    200.1160	      0.0000
    200.1187	      0.0000
    200.1213	      0.0000
    200.1240	      0.0000
    202.0662	      0.0000
    202.0689	      0.0000
    202.0716	      0.0000
    202.0743	      0.0000
    202.0770	   1603.0895
    202.0798	   3326.7759
    202.0825	   4422.4038
    202.0852	   4043.4084
    202.0879	   2480.3191
    202.0907	    876.7171
    202.0935	      0.0000
    202.0962	      0.0000
    202.0989	      0.0000
    202.1016	      0.0000
    207.0725	      0.0000
    207.0753	      0.0000
    207.0781	      0.0000
    207.0810	      0.0000
    207.0838	   1739.4441
    207.0866	   2900.1794
    207.0894	   3314.5083
    207.0923	   2690.6726
    207.0951	   1431.0630
    207.0979	      0.0000
    207.1007	      0.0000
    207.1035	      0.0000
    207.1064	      0.0000
    213.1056	      0.0000
    213.1086	      0.0000
    213.1115	      0.0000
    213.1145	      0.0000
    213.1174	   1033.1127
    213.1204	   2523.6252
    213.1233	   3474.4832
    213.1263	   3131.0085
    213.1292	   1799.2274
    213.1322	      0.0000
    213.1352	      0.0000
    213.1381	      0.0000
    213.1411	      0.0000
    225.0751	      0.0000
    225.0783	      0.0000
    225.0815	      0.0000
    225.0847	      0.0000
    225.0879	    892.5092
    225.0911	   2325.9568
    225.0943	   4490.7358
    225.0975	   6271.8550
    225.1007	   6593.4810
    225.1039	   5334.1479
    225.1071	   3323.6279
    225.1103	   1566.5840
    225.1135	      0.0000
    225.1167	      0.0000
    225.1199	      0.0000
    225.1231	      0.0000
    225.6013	      0.0000
    225.6045	      0.0000
    225.6077	      0.0000
    225.6109	      0.0000
    225.6141	   1472.2654
    225.6173	   3732.8350
    225.6206	   7851.3418
    225.6238	  10832.2959
    225.6270	   8528.2910
    225.6302	   3661.6787
    225.6334	   1407.0291
    225.6367	      0.0000
    225.6399	      0.0000
    225.6432	      0.0000
    225.6464	      0.0000
    228.1524	      0.0000
    228.1556	      0.0000
    228.1589	      0.0000
    228.1622	      0.0000
    228.1654	   1723.5912
    228.1687	   2868.8000
    228.1720	   3190.1631
    228.1752	   2478.5266
    228.1785	   1252.7994
    228.1818	      0.0000
    228.1850	      0.0000
    228.1883	      0.0000
    228.1916	      0.0000
    234.6047	      0.0000
    234.6081	      0.0000
    234.6115	      0.0000
    234.6149	      0.0000
    234.6183	   1904.0642
    234.6218	   6864.4902
    234.6252	  12367.3760
    234.6286	  17018.8809
    234.6320	  14491.0879
    234.6354	   8740.6934
    234.6388	   3410.4072
    234.6422	   1145.6067
    234.6456	      0.0000
    234.6490	      0.0000
    234.6524	      0.0000
    234.6558	      0.0000
    235.1031	      0.0000
    235.1066	      0.0000
    235.1100	      0.0000
    235.1134	      0.0000
    235.1168	   1857.0099
    235.1202	   2581.8816
    235.1237	   2822.6702
    235.1271	   2528.4099
    235.1305	   1849.3701
    235.1339	      0.0000
    235.1373	      0.0000
    235.1408	      0.0000
    235.1442	      0.0000
    236.0841	      0.0000
    236.0876	      0.0000
    236.0910	      0.0000
    236.0945	      0.0000
    236.0979	   1530.6733
    236.1013	   2672.6587
    236.1048	   3312.2896
    236.1082	   3058.1538
    236.1117	   2111.0930
    236.1151	   1038.3435
    236.1185	      0.0000
    236.1220	      0.0000
    236.1254	      0.0000
    236.1289	      0.0000
    237.0747	      0.0000
    237.0782	      0.0000
    237.0817	      0.0000
    237.0851	      0.0000
    237.0886	   1445.3223
    237.0920	   3847.5574
    237.0955	   9474.3936
    237.0990	  12199.1807
    237.1024	   9453.5117
    237.1059	   4107.2524
    237.1094	   1635.2451
    237.1128	      0.0000
    237.1163	      0.0000
    237.1197	      0.0000
    237.1232	      0.0000
    238.5916	      0.0000
    238.5951	      0.0000
    238.5986	      0.0000
    238.6021	      0.0000
    238.6056	   1408.4474
    238.6091	   2401.8948
    238.6126	   2829.2981
    238.6161	   2491.9617
    238.6196	   1640.2716
    238.6231	      0.0000
    238.6266	      0.0000
    238.6301	      0.0000
    238.6336	      0.0000
    239.0642	      0.0000
    239.0677	      0.0000
    239.0712	      0.0000
    239.0747	      0.0000
    239.0782	   1704.3590
    239.0818	   2213.5020
    239.0853	   2360.3494
    239.0888	   2192.4646
    239.0923	   1767.9940
    239.0959	      0.0000
    239.0994	      0.0000
    239.1029	      0.0000
    239.1064	      0.0000
    244.1400	      0.0000
    244.1436	      0.0000
    244.1472	      0.0000
    244.1508	      0.0000
    244.1544	   1316.7766
    244.1581	   3072.9575
    244.1617	   5262.9448
    244.1653	   6562.9556
    244.1689	   6000.7212
    244.1725	   3917.0757
    244.1762	   1695.4272
    244.1798	      0.0000
    244.1834	      0.0000
    244.1870	      0.0000
    244.1906	      0.0000
    245.6339	      0.0000
    245.6376	      0.0000
    245.6412	      0.0000
    245.6449	      0.0000
    245.6486	   1756.7242
    245.6522	   2884.6433
    245.6559	   3280.3923
    245.6595	   2655.1455
    245.6632	   1418.7223
    245.6668	      0.0000
    245.6705	      0.0000
    245.6741	      0.0000
    245.6778	      0.0000
    247.0975	      0.0000
    247.1011	      0.0000
    247.1048	      0.0000
    247.1085	      0.0000
    247.1122	   1081.9474
    247.1159	   2207.1821
    247.1196	   6708.1460
    247.1232	  11660.4307
    247.1269	  13715.5039
    247.1306	   9842.6641
    247.1343	   5427.6089
    247.1380	   1371.4197
    247.1416	      0.0000
    247.1453	      0.0000
    247.1490	      0.0000
    247.1527	      0.0000
    254.1032	      0.0000
    254.1070	      0.0000
    254.1109	      0.0000
    254.1147	      0.0000
    254.1186	   1727.0123
    254.1224	   3294.7542
    254.1262	   3870.2271
    254.1301	   3003.0261
    254.1339	   1463.4169
    254.1378	      0.0000
    254.1416	      0.0000
    254.1454	      0.0000
    254.1493	      0.0000
    256.1090	      0.0000
    256.1129	      0.0000
    256.1168	      0.0000
    256.1207	      0.0000
    256.1246	   1860.1210
    256.1285	   2759.0313
    256.1324	   2967.4905
    256.1362	   2393.3225
    256.1401	   1420.9465
    256.1441	      0.0000
    256.1480	      0.0000
    256.1519	      0.0000
    256.1558	      0.0000
    257.0838	      0.0000
    257.0877	      0.0000
    257.0917	      0.0000
    257.0956	      0.0000
    257.0995	    956.7593
    257.1034	   4052.8445
    257.1073	  10739.7500
    257.1112	  17934.7461
    257.1151	  20694.5410
    257.1190	  14363.4971
    257.1229	   7380.5684
    257.1269	   1735.8367
    257.1307	      0.0000
    257.1346	      0.0000
    257.1385	      0.0000
    257.1424	      0.0000
    257.5888	      0.0000
    257.5928	      0.0000
    257.5967	      0.0000
    257.6006	      0.0000
    257.6045	    912.3932
    257.6085	   2349.5115
    257.6124	   3798.6611
    257.6163	   4270.4941
    257.6202	   3363.2385
    257.6241	   1741.8938
    257.6282	      0.0000
    257.6321	      0.0000
    257.6360	      0.0000
    257.6399	      0.0000
    260.6033	      0.0000
    260.6073	      0.0000
    260.6113	      0.0000
    260.6153	      0.0000
    260.6193	   1279.9552
    260.6233	   2453.3352
    260.6273	   3355.8362
    260.6312	   3395.2510
    260.6352	   2470.1553
    260.6392	   1161.8082
    260.6432	      0.0000
    260.6472	      0.0000
    260.6512	      0.0000
    260.6552	      0.0000
    261.1028	      0.0000
    261.1068	      0.0000
    261.1108	      0.0000
    261.1148	      0.0000
    261.1188	   1969.0349
    261.1228	   3544.3333
    261.1268	   4552.7856
    261.1308	   4409.4160
    261.1349	   3230.3616
    261.1389	   1715.5436
    261.1428	      0.0000
    261.1468	      0.0000
    261.1508	      0.0000
    261.1549	      0.0000
    265.5982	      0.0000
    265.6023	      0.0000
    265.6064	      0.0000
    265.6105	      0.0000
    265.6146	   1662.3242
    265.6188	   4551.1182
    265.6229	   9019.8535
    265.6270	  12973.7363
    265.6311	  11144.7246
    265.6352	   6711.8301
