# ljz_20131022_MR_Chym1_ELUTE.mzML
#
# index: 3753
# id: controllerType=0 controllerNumber=1 scan=9762
# scanNumber: 9762
# massAnalyzerType: quadrupole
# scanEvent: 2
# msLevel: 2
# retentionTime: 2483.19
# filterString: FTMS + p NSI d Full ms2 420.19@hcd28.00 [100.00-1305.00]
# mzLow: 99.0036
# mzHigh: 1318.33
# basePeakMZ: 157.134
# basePeakIntensity: 201254
# totalIonCurrent: 3.34156e+006
# precursorCount: 1
# precursor 0: 420.195 2.33623e+006
# binary (4980): 
     99.0036	      0.0000
     99.0045	      0.0000
     99.0054	      0.0000
     99.0064	      0.0000
    101.0002	      0.0000
    101.0012	      0.0000
    101.0021	      0.0000
    101.0031	      0.0000
    101.0041	    709.5532
    101.0050	   1314.5377
    101.0060	   1583.9437
    101.0069	   1292.9635
    101.0079	    661.3533
    101.0089	      0.0000
    101.0098	      0.0000
    101.0108	      0.0000
    101.0118	      0.0000
    101.0599	      0.0000
    101.0609	      0.0000
    101.0618	      0.0000
    101.0628	      0.0000
    101.0638	      0.0000
    101.0647	   1457.5022
    101.0657	    963.6395
    101.0669	   1202.8540
    101.0678	   2268.3882
    101.0688	   6501.1123
    101.0698	  19150.2930
    101.0707	  33901.1172
    101.0717	  46423.9336
    101.0727	  38669.2695
    101.0736	  22948.5625
    101.0746	   8241.4775
    101.0755	   1342.5243
    101.0765	      0.0000
    101.0773	      0.0000
    101.0782	      0.0000
    101.0792	      0.0000
    101.0802	      0.0000
    102.0501	      0.0000
    102.0510	      0.0000
    102.0520	      0.0000
    102.0530	      0.0000
    102.0540	    500.1124
    102.0550	    987.7090
    102.0559	   1172.1177
    102.0569	    926.8004
    102.0579	    459.5068
    102.0589	      0.0000
    102.0598	      0.0000
    102.0608	      0.0000
    102.0618	      0.0000
    103.0479	      0.0000
    103.0489	      0.0000
    103.0499	      0.0000
    103.0509	      0.0000
    103.0519	    491.7104
    103.0529	    887.4888
    103.0539	   1094.6377
    103.0548	    957.9334
    103.0558	    543.7100
    103.0568	      0.0000
    103.0578	      0.0000
    103.0588	      0.0000
    103.0598	      0.0000
    105.0594	      0.0000
    105.0604	      0.0000
    105.0614	      0.0000
    105.0624	      0.0000
    105.0634	    583.8662
    105.0645	   1610.3885
    105.0655	   2799.8540
    105.0665	   5395.7070
    105.0675	   4170.5112
    105.0686	   2281.6421
    105.0696	   1044.4500
    105.0706	    453.5269
    105.0717	      0.0000
    105.0727	      0.0000
    105.0737	      0.0000
    105.0747	      0.0000
    106.0241	      0.0000
    106.0252	      0.0000
    106.0262	      0.0000
    106.0272	      0.0000
    106.0283	    294.2578
    106.0293	    932.0631
    106.0303	   3756.6670
    106.0314	   7621.7852
    106.0324	  11498.2217
    106.0334	  10608.8613
    106.0345	   6417.2500
    106.0355	   2565.6924
    106.0365	    416.3791
    106.0375	      0.0000
    106.0385	      0.0000
    106.0396	      0.0000
    106.0406	      0.0000
    108.4219	      0.0000
    108.4229	      0.0000
    108.4240	      0.0000
    108.4251	      0.0000
    108.4262	    722.7588
    108.4272	   1130.3757
    108.4283	   1263.7704
    108.4294	   1055.9487
    108.4304	    641.8325
    108.4317	      0.0000
    108.4328	      0.0000
    108.4339	      0.0000
    108.4349	      0.0000
    110.0585	      0.0000
    110.0595	      0.0000
    110.0606	      0.0000
    110.0617	      0.0000
    110.0628	    336.1716
    110.0639	   2251.1243
    110.0650	   2306.9451
    110.0661	   4349.1328
    110.0672	   6653.3555
    110.0683	  16866.5957
    110.0694	  51946.1797
    110.0705	 101567.6797
    110.0716	 152841.2344
    110.0727	 146199.0469
    110.0738	  91696.4766
    110.0749	  41022.2383
    110.0760	   9156.0156
    110.0771	   1625.1534
    110.0779	      0.0000
    110.0790	      0.0000
    110.0801	      0.0000
    110.0812	      0.0000
    110.0823	      0.0000
    110.0834	      0.0000
    110.0845	      0.0000
    110.0856	      0.0000
    111.0494	      0.0000
    111.0506	      0.0000
    111.0517	      0.0000
    111.0528	      0.0000
    111.0539	    555.4229
    111.0550	   1153.7388
    111.0561	   1464.2570
    111.0572	   1216.8284
    111.0583	    617.9576
    111.0594	      0.0000
    111.0605	      0.0000
    111.0617	      0.0000
    111.0628	      0.0000
    111.0639	      0.0000
    111.0650	      0.0000
    111.0661	    299.2784
    111.0672	    965.3777
    111.0683	   1486.2264
    111.0694	   1397.0541
    111.0705	    909.2687
    111.0716	    574.7828
    111.0728	   2468.8518
    111.0739	   5300.1841
    111.0750	   8036.9258
    111.0761	   7195.6841
    111.0772	   4213.4766
    111.0783	   1442.9878
    111.0794	    112.3849
    111.0805	      0.0000
    111.0816	      0.0000
    111.0827	      0.0000
    111.0838	      0.0000
    114.0840	      0.0000
    114.0851	      0.0000
    114.0863	      0.0000
    114.0875	      0.0000
    114.0886	    416.0586
    114.0898	   1132.7717
    114.0909	   1826.1740
    114.0921	   2001.2665
    114.0932	   1549.0597
    114.0944	    831.6690
    114.0955	      0.0000
    114.0967	      0.0000
    114.0978	      0.0000
    114.0990	      0.0000
    116.0105	      0.0000
    116.0117	      0.0000
    116.0129	      0.0000
    116.0141	      0.0000
    116.0153	    715.6156
    116.0165	   1192.2839
    116.0177	   1265.2535
    116.0188	    894.8815
    116.0200	    381.6817
    116.0213	      0.0000
    116.0224	      0.0000
    116.0236	      0.0000
    116.0248	      0.0000
    117.0559	      0.0000
    117.0571	      0.0000
    117.0583	      0.0000
    117.0595	      0.0000
    117.0607	    266.7989
    117.0619	   1282.9281
    117.0631	   5054.3027
    117.0643	  12427.1787
    117.0655	  20528.4063
    117.0667	  23804.9609
    117.0679	  16743.9102
    117.0691	   8939.2402
    117.0703	   2392.6377
    117.0715	    238.1056
    117.0726	      0.0000
    117.0738	      0.0000
    117.0750	      0.0000
    117.0762	      0.0000
    119.0424	      0.0000
    119.0437	      0.0000
    119.0449	      0.0000
    119.0461	      0.0000
    119.0474	    674.9478
    119.0486	   1180.1927
    119.0498	   1332.8007
    119.0511	   1023.1273
    119.0523	    487.6280
    119.0538	      0.0000
    119.0550	      0.0000
    119.0562	      0.0000
    119.0575	      0.0000
    120.0694	      0.0000
    120.0706	      0.0000
    120.0719	      0.0000
    120.0731	      0.0000
    120.0744	    746.3276
    120.0756	   1627.6464
    120.0769	   4083.5945
    120.0781	  12243.0566
    120.0793	  26990.9766
    120.0806	  43009.3867
    120.0818	  47156.9492
    120.0831	  32052.0840
    120.0843	  16437.7090
    120.0856	   3919.4841
    120.0868	    181.3157
    120.0878	      0.0000
    120.0891	      0.0000
    120.0903	      0.0000
    120.0916	      0.0000
    121.0750	      0.0000
    121.0763	      0.0000
    121.0775	      0.0000
    121.0788	      0.0000
    121.0801	    351.0369
    121.0813	   1128.1338
    121.0826	   2337.0747
    121.0839	   4929.1216
    121.0851	   4992.6011
    121.0864	   3173.0659
    121.0877	   1371.6239
    121.0889	    517.3780
    121.0902	      0.0000
    121.0914	      0.0000
    121.0927	      0.0000
    121.0940	      0.0000
    122.0629	      0.0000
    122.0642	      0.0000
    122.0655	      0.0000
    122.0667	      0.0000
    122.0680	    449.6378
    122.0693	   1151.8645
    122.0706	   1850.1213
    122.0719	   2074.0381
    122.0731	   1673.1251
    122.0744	    952.3941
    122.0757	    384.6888
    122.0769	      0.0000
    122.0782	      0.0000
    122.0795	      0.0000
    122.0808	      0.0000
    127.0417	      0.0000
    127.0430	      0.0000
    127.0444	      0.0000
    127.0457	      0.0000
    127.0471	    451.4420
    127.0485	   1159.8961
    127.0498	   1785.4481
    127.0512	   1843.7809
    127.0525	   1265.0375
    127.0539	    502.4074
    127.0552	      0.0000
    127.0566	      0.0000
    127.0580	      0.0000
    127.0593	      0.0000
    127.1150	      0.0000
    127.1164	      0.0000
    127.1178	      0.0000
    127.1191	      0.0000
    127.1205	    665.3847
    127.1218	   1061.8901
    127.1232	   1186.8258
    127.1246	    955.2484
    127.1259	    505.8769
    127.1273	      0.0000
    127.1286	      0.0000
    127.1300	      0.0000
    127.1313	      0.0000
    128.0995	      0.0000
    128.1009	      0.0000
    128.1022	      0.0000
    128.1036	      0.0000
    128.1050	    744.8669
    128.1064	   1303.3478
    128.1077	   1461.7493
    128.1091	   1089.9966
    128.1105	    471.2698
    128.1117	      0.0000
    128.1130	      0.0000
    128.1144	      0.0000
    128.1158	      0.0000
    129.0549	      0.0000
    129.0563	      0.0000
    129.0577	      0.0000
    129.0591	      0.0000
    129.0605	      0.0000
    129.0619	   1180.7729
    129.0632	   3931.6333
    129.0646	   6865.1235
    129.0660	   8988.0361
    129.0674	   7233.0444
    129.0688	   4279.1851
    129.0702	   1585.5886
    129.0716	    653.6235
    129.0734	      0.0000
    129.0748	      0.0000
    129.0762	      0.0000
    129.0776	      0.0000
    129.0901	      0.0000
    129.0915	      0.0000
    129.0929	      0.0000
    129.0943	      0.0000
    129.0957	    789.5709
    129.0971	   1962.5161
    129.0985	   5927.5508
    129.0999	  17970.7813
    129.1013	  32937.7617
    129.1026	  46594.2734
    129.1040	  40651.8516
    129.1054	  24665.6055
    129.1068	   9788.8477
    129.1082	   2062.3726
    129.1096	    251.2651
    129.1107	      0.0000
    129.1121	      0.0000
    129.1135	      0.0000
    129.1149	      0.0000
    130.0411	      0.0000
    130.0425	      0.0000
    130.0439	      0.0000
    130.0453	      0.0000
    130.0467	    573.3171
    130.0482	   1294.7332
    130.0496	   1823.4071
    130.0510	   1786.9521
    130.0524	   1209.6643
    130.0538	    503.1132
    130.0556	      0.0000
    130.0570	      0.0000
    130.0584	      0.0000
    130.0598	      0.0000
    131.1073	      0.0000
    131.1087	      0.0000
    131.1101	      0.0000
    131.1115	      0.0000
    131.1129	    610.4714
    131.1144	   1884.8397
    131.1158	   5608.8950
    131.1172	   9935.0889
    131.1186	  13352.0654
    131.1201	  10744.5039
    131.1215	   6297.0264
    131.1229	   2016.7761
    131.1243	    252.9410
    131.1256	      0.0000
    131.1270	      0.0000
    131.1284	      0.0000
    131.1299	      0.0000
    132.0865	      0.0000
    132.0880	      0.0000
    132.0894	      0.0000
    132.0908	      0.0000
    132.0923	     11.2570
    132.0937	   1411.4376
    132.0952	   3042.9578
    132.0966	   6753.7778
    132.0980	  19895.0000
    132.0995	  59056.3477
    132.1009	 105315.8906
    132.1024	 145213.7969
    132.1038	 121992.1719
    132.1052	  72881.9297
    132.1067	  26946.5918
    132.1081	   5321.3013
    132.1096	    547.6040
    132.1110	      0.0000
    132.1124	      0.0000
    132.1139	      0.0000
    132.1153	      0.0000
    133.0318	      0.0000
    133.0333	      0.0000
    133.0348	      0.0000
    133.0362	      0.0000
    133.0377	    795.5054
    133.0391	   2521.9763
    133.0406	   7585.4956
    133.0420	  13505.0762
    133.0435	  18292.4863
    133.0449	  15022.8486
    133.0464	   8877.4873
    133.0479	   3035.1189
    133.0493	    460.0524
    133.0509	      0.0000
    133.0524	      0.0000
    133.0538	      0.0000
    133.0553	      0.0000
    133.0946	      0.0000
    133.0961	      0.0000
    133.0975	      0.0000
    133.0990	      0.0000
    133.1004	    532.9788
    133.1019	   1925.3429
    133.1033	   5197.6089
    133.1048	   8790.7197
    133.1062	  10984.1309
    133.1077	   8234.5840
    133.1092	   4623.3799
    133.1106	   1167.6320
    133.1121	      0.0000
    133.1131	      0.0000
    133.1145	      0.0000
    133.1160	      0.0000
    133.1175	      0.0000
    134.9841	      0.0000
    134.9856	      0.0000
    134.9871	      0.0000
    134.9886	      0.0000
    134.9901	    369.6388
    134.9916	   1060.2107
    134.9931	   1683.4294
    134.9945	   1798.7635
    134.9960	   1322.8251
    134.9975	    626.2029
    134.9990	      0.0000
    135.0005	      0.0000
    135.0020	      0.0000
    135.0035	      0.0000
    136.0646	      0.0000
    136.0661	      0.0000
    136.0676	      0.0000
    136.0691	      0.0000
    136.0706	    685.4168
    136.0721	   3014.4172
    136.0736	   6713.9307
    136.0751	  10699.4805
    136.0767	  11131.7061
    136.0782	   7230.6577
    136.0797	   3555.9104
    136.0812	    854.7476
    136.0827	    500.1701
    136.0842	   1804.9663
    136.0857	   3524.0977
    136.0872	   4641.0283
    136.0887	   2667.4731
    136.0902	   1585.2872
    136.0917	    671.4459
    136.0932	      0.0000
    136.0947	      0.0000
    136.0962	      0.0000
    136.0977	      0.0000
    138.0569	      0.0000
    138.0584	      0.0000
    138.0600	      0.0000
    138.0615	      0.0000
    138.0630	    859.2404
    138.0646	   1731.6359
    138.0661	   2356.3291
    138.0677	   2307.2437
    138.0692	   1633.4437
    138.0707	    793.1399
    138.0721	      0.0000
    138.0736	      0.0000
    138.0752	      0.0000
    138.0767	      0.0000
    145.0478	      0.0000
    145.0495	      0.0000
    145.0511	      0.0000
    145.0528	      0.0000
    145.0544	    486.9768
    145.0561	   2212.9424
    145.0577	   7292.4331
    145.0594	  12593.7266
    145.0611	  16035.8809
    145.0627	  12079.5352
    145.0644	   6823.9980
    145.0660	   1997.9984
    145.0677	    328.4549
    145.0698	      0.0000
    145.0715	      0.0000
    145.0732	      0.0000
    145.0748	      0.0000
    149.0066	      0.0000
    149.0083	      0.0000
    149.0100	      0.0000
    149.0118	      0.0000
    149.0135	    709.0731
    149.0152	   1297.1007
    149.0169	   2991.7991
    149.0187	   9148.8799
    149.0204	  27285.8086
    149.0221	  47607.8906
    149.0238	  63344.2930
    149.0256	  50457.5781
    149.0273	  29609.2266
    149.0290	   9779.3662
    149.0307	   2054.9666
    149.0325	    664.1675
    149.0339	      0.0000
    149.0356	      0.0000
    149.0374	      0.0000
    149.0391	      0.0000
    150.0138	      0.0000
    150.0155	      0.0000
    150.0173	      0.0000
    150.0190	      0.0000
    150.0208	    457.5575
    150.0225	   1382.3214
    150.0243	   3934.3450
    150.0260	   6105.0557
    150.0277	   6353.3672
    150.0295	   4154.7886
    150.0312	   1918.8817
    150.0330	    712.5515
    150.0347	      0.0000
    150.0365	      0.0000
    150.0382	      0.0000
    150.0399	      0.0000
    150.0539	      0.0000
    150.0556	      0.0000
    150.0574	      0.0000
    150.0591	      0.0000
    150.0609	    814.3205
    150.0626	   2135.1638
    150.0643	   4318.8335
    150.0661	   6305.3311
    150.0678	   5314.8574
    150.0696	   3046.7336
    150.0713	    907.8202
    150.0731	      0.0000
    150.0748	      0.0000
    150.0765	      0.0000
    150.0783	      0.0000
    152.0223	      0.0000
    152.0241	      0.0000
    152.0259	      0.0000
    152.0276	      0.0000
    152.0294	    465.4488
    152.0312	   1203.4515
    152.0330	   1922.1733
    152.0347	   2129.4392
    152.0365	   1651.0339
    152.0383	    847.1829
    152.0401	      0.0000
    152.0419	      0.0000
    152.0436	      0.0000
    152.0454	      0.0000
    152.0703	      0.0000
    152.0721	      0.0000
    152.0739	      0.0000
    152.0756	      0.0000
    152.0774	    938.7446
    152.0792	   2365.9602
    152.0810	   4223.8979
    152.0828	   5001.4170
    152.0845	   3409.9939
    152.0863	   1409.3284
    152.0881	    481.0805
    152.0899	      0.0000
    152.0916	      0.0000
    152.0934	      0.0000
    152.0952	      0.0000
    155.0795	      0.0000
    155.0813	      0.0000
    155.0831	      0.0000
    155.0850	      0.0000
    155.0868	    383.2247
    155.0886	   2030.0215
    155.0905	   4590.0894
    155.0923	   7187.0220
    155.0941	   6794.1104
    155.0960	   4088.3984
    155.0978	   1566.2970
    155.0996	    642.0385
    155.1015	      0.0000
    155.1033	      0.0000
    155.1051	      0.0000
    155.1070	      0.0000
    155.1088	      0.0000
    155.1106	      0.0000
    155.1124	      0.0000
    155.1143	    577.0145
    155.1161	    984.0217
    155.1179	   1198.5143
    155.1198	   1065.9999
    155.1216	    662.5319
    155.1235	      0.0000
    155.1253	      0.0000
    155.1272	      0.0000
    155.1290	      0.0000
    156.0642	      0.0000
    156.0661	      0.0000
    156.0679	      0.0000
    156.0698	      0.0000
    156.0716	    471.7070
    156.0735	   1295.9695
    156.0753	   2241.9080
    156.0772	   2643.4236
    156.0790	   2194.4568
    156.0809	   1254.6320
    156.0827	    476.7330
    156.0846	      0.0000
    156.0864	      0.0000
    156.0883	      0.0000
    156.0901	      0.0000
    157.0714	      0.0000
    157.0733	      0.0000
    157.0752	      0.0000
    157.0770	      0.0000
    157.0789	    774.6769
    157.0808	   1428.8436
    157.0826	   1822.5316
    157.0845	   1688.3424
    157.0864	   1139.3918
    157.0882	    569.0677
    157.0901	      0.0000
    157.0920	      0.0000
    157.0938	      0.0000
    157.0957	      0.0000
    157.0976	      0.0000
    157.0994	      0.0000
    157.1013	      0.0000
    157.1032	      0.0000
    157.1050	      0.0000
    157.1069	      0.0000
    157.1088	      0.0000
    157.1106	      0.0000
    157.1125	      0.0000
    157.1144	      0.0000
    157.1162	      0.0000
    157.1181	      0.0000
    157.1200	      0.0000
    157.1218	      0.0000
    157.1240	   4717.7925
    157.1259	   7648.7910
    157.1277	  20297.0586
    157.1296	  63854.8398
    157.1315	 127411.4297
    157.1333	 194276.6406
    157.1352	 190296.2813
    157.1371	 121019.5859
    157.1390	  56395.8008
    157.1408	  13776.8564
    157.1427	   3013.7231
    157.1443	   3256.9924
    157.1461	   2911.8069
    157.1480	   1851.5496
    157.1499	    249.7607
    157.1517	      0.0000
    157.1536	      0.0000
    157.1555	      0.0000
    157.1573	      0.0000
    158.0789	      0.0000
    158.0808	      0.0000
    158.0827	      0.0000
    158.0846	      0.0000
    158.0865	    355.3526
    158.0884	   1011.8487
    158.0903	   2156.2231
    158.0921	   4181.4897
    158.0940	   3000.1477
    158.0959	   2038.8494
    158.0978	    891.0778
    158.1003	      0.0000
    158.1022	      0.0000
    158.1041	      0.0000
    158.1060	      0.0000
    158.1210	      0.0000
    158.1229	      0.0000
    158.1248	      0.0000
    158.1267	      0.0000
    158.1286	    625.3156
    158.1305	   1107.5479
    158.1324	   2940.2117
    158.1343	   7440.3198
    158.1361	  12492.8916
    158.1380	  15585.4434
    158.1399	  11521.2725
    158.1418	   6305.0786
    158.1437	   1493.3503
    158.1456	      0.0000
    158.1469	      0.0000
    158.1488	      0.0000
    158.1506	      0.0000
    158.1525	      0.0000
    165.0406	      0.0000
    165.0426	      0.0000
    165.0446	      0.0000
    165.0466	      0.0000
    165.0486	    380.1258
    165.0506	   1139.8134
    165.0526	   1937.7518
    165.0546	   2215.6558
    165.0567	   1777.9156
    165.0587	    967.7238
    165.0607	      0.0000
    165.0627	      0.0000
    165.0647	      0.0000
    165.0667	      0.0000
    166.0467	      0.0000
    166.0487	      0.0000
    166.0507	      0.0000
    166.0528	      0.0000
    166.0548	    464.8456
    166.0568	   1381.9530
    166.0589	   2519.3232
    166.0609	   4658.9980
    166.0629	   3852.6924
    166.0650	   2058.0137
    166.0670	   1081.4607
    166.0690	    438.7226
    166.0713	      0.0000
    166.0734	      0.0000
    166.0754	      0.0000
    166.0774	    378.2574
    166.0794	   1464.3170
    166.0815	   4842.4268
    166.0835	  11022.1592
    166.0855	  17784.9961
    166.0876	  19573.8164
    166.0896	  13284.1611
    166.0916	   6788.3184
    166.0937	   1649.2875
    166.0957	    112.6554
    166.0974	      0.0000
    166.0995	      0.0000
