# ljz_20131022_MR_Chym1_ELUTE.mzML
#
# index: 1558
# id: controllerType=0 controllerNumber=1 scan=6876
# scanNumber: 6876
# massAnalyzerType: quadrupole
# scanEvent: 2
# msLevel: 2
# retentionTime: 1955.29
# filterString: FTMS + p NSI d Full ms2 918.42@hcd28.00 [100.00-1895.00]
# mzLow: 99.0035
# mzHigh: 1914.37
# basePeakMZ: 230.114
# basePeakIntensity: 166737
# totalIonCurrent: 660662
# precursorCount: 1
# precursor 0: 917.924 1.41195e+006
# binary (1172): 
     99.0035	      0.0000
     99.0044	      0.0000
     99.0053	      0.0000
     99.0063	      0.0000
    115.0307	      0.0000
    115.0319	      0.0000
    115.0331	      0.0000
    115.0342	      0.0000
    115.0354	    511.0128
    115.0366	   1350.0305
    115.0377	   2186.4666
    115.0389	   2494.2473
    115.0401	   2063.9617
    115.0413	   1207.0890
    115.0424	    473.5918
    115.0436	      0.0000
    115.0448	      0.0000
    115.0460	      0.0000
    115.0471	      0.0000
    126.0413	      0.0000
    126.0427	      0.0000
    126.0440	      0.0000
    126.0454	      0.0000
    126.0467	    718.3826
    126.0481	   1437.5752
    126.0494	   2293.0527
    126.0507	   6668.5796
    126.0521	  21757.2207
    126.0534	  45088.1289
    126.0548	  70129.4375
    126.0561	  72020.7109
    126.0575	  47070.7617
    126.0588	  23053.9824
    126.0601	   5758.9834
    126.0615	    706.9685
    126.0631	      0.0000
    126.0644	      0.0000
    126.0658	      0.0000
    126.0671	      0.0000
    127.0285	      0.0000
    127.0299	      0.0000
    127.0312	      0.0000
    127.0326	      0.0000
    127.0340	    671.8967
    127.0353	   1961.7129
    127.0367	   5357.9858
    127.0380	   9171.1074
    127.0394	  12035.4131
    127.0408	   9657.6914
    127.0421	   5675.3696
    127.0435	   1863.8387
    127.0448	    156.0312
    127.0458	      0.0000
    127.0471	      0.0000
    127.0485	      0.0000
    127.0498	      0.0000
    129.0927	      0.0000
    129.0941	      0.0000
    129.0955	      0.0000
    129.0969	      0.0000
    129.0983	    383.0684
    129.0997	   1190.3552
    129.1010	   2173.5200
    129.1024	   2705.8765
    129.1038	   2392.2075
    129.1052	   1467.1306
    129.1066	    565.9305
    129.1080	      0.0000
    129.1094	      0.0000
    129.1107	      0.0000
    129.1121	      0.0000
    133.0505	      0.0000
    133.0520	      0.0000
    133.0534	      0.0000
    133.0549	      0.0000
    133.0564	    855.9379
    133.0578	   3249.4644
    133.0593	   6137.0278
    133.0607	   8728.7695
    133.0622	   7579.6162
    133.0636	   4577.9175
    133.0651	   1752.4875
    133.0665	    634.5740
    133.0680	      0.0000
    133.0694	      0.0000
    133.0709	      0.0000
    133.0723	      0.0000
    136.8737	      0.0000
    136.8752	      0.0000
    136.8767	      0.0000
    136.8782	      0.0000
    136.8798	    551.6580
    136.8813	   1033.0299
    136.8828	   1298.1709
    136.8843	   1154.1691
    136.8858	    689.6280
    136.8876	      0.0000
    136.8891	      0.0000
    136.8906	      0.0000
    136.8921	      0.0000
    138.0402	      0.0000
    138.0418	      0.0000
    138.0433	      0.0000
    138.0449	      0.0000
    138.0464	    724.4473
    138.0479	   1110.1591
    138.0495	   2523.1792
    138.0510	   7725.4370
    138.0526	  19475.4824
    138.0541	  32344.7168
    138.0556	  38716.0977
    138.0572	  27955.2148
    138.0587	  15292.3223
    138.0602	   4180.0552
    138.0618	    636.3743
    138.0631	      0.0000
    138.0646	      0.0000
    138.0662	      0.0000
    138.0677	      0.0000
    139.0501	      0.0000
    139.0516	      0.0000
    139.0532	      0.0000
    139.0547	      0.0000
    139.0563	    939.1581
    139.0579	   1522.4282
    139.0594	   1577.8541
    139.0610	   1119.7987
    139.0625	    523.4383
    139.0641	      0.0000
    139.0656	      0.0000
    139.0672	      0.0000
    139.0687	      0.0000
    141.0910	      0.0000
    141.0926	      0.0000
    141.0942	      0.0000
    141.0958	      0.0000
    141.0974	    700.5012
    141.0990	   1405.2411
    141.1006	   2072.9382
    141.1022	   2303.8015
    141.1038	   1914.7859
    141.1054	   1153.4064
    141.1069	    489.9491
    141.1086	      0.0000
    141.1102	      0.0000
    141.1118	      0.0000
    141.1133	      0.0000
    144.0540	      0.0000
    144.0557	      0.0000
    144.0573	      0.0000
    144.0589	      0.0000
    144.0606	    382.8335
    144.0622	   1009.9230
    144.0639	   1675.1879
    144.0655	   1935.9175
    144.0671	   1579.0763
    144.0688	    843.7542
    144.0704	      0.0000
    144.0720	      0.0000
    144.0737	      0.0000
    144.0753	      0.0000
    145.0381	      0.0000
    145.0398	      0.0000
    145.0414	      0.0000
    145.0431	      0.0000
    145.0447	    559.6994
    145.0464	   1571.6685
    145.0480	   2780.2847
    145.0497	   5065.9116
    145.0514	   3955.1028
    145.0530	   1912.4674
    145.0547	    845.7250
    145.0564	      0.0000
    145.0580	      0.0000
    145.0597	      0.0000
    145.0613	      0.0000
    149.5756	      0.0000
    149.5774	      0.0000
    149.5791	      0.0000
    149.5808	      0.0000
    149.5826	    555.0063
    149.5843	   1027.0155
    149.5860	   1264.0153
    149.5878	   1073.6230
    149.5895	    576.8971
    149.5912	      0.0000
    149.5929	      0.0000
    149.5947	      0.0000
    149.5964	      0.0000
    154.3657	      0.0000
    154.3676	      0.0000
    154.3694	      0.0000
    154.3712	      0.0000
    154.3730	    490.9284
    154.3748	   1076.5627
    154.3767	   1451.8566
    154.3785	   1340.7367
    154.3803	    834.9993
    154.3821	      0.0000
    154.3839	      0.0000
    154.3858	      0.0000
    154.3876	      0.0000
    163.0457	      0.0000
    163.0476	      0.0000
    163.0496	      0.0000
    163.0516	      0.0000
    163.0536	    498.3058
    163.0555	   1303.0815
    163.0575	   2430.8525
    163.0595	   3188.9409
    163.0615	   3023.0149
    163.0634	   2060.6577
    163.0654	    969.9971
    163.0677	      0.0000
    163.0697	      0.0000
    163.0717	      0.0000
    163.0736	      0.0000
    168.0499	      0.0000
    168.0519	      0.0000
    168.0540	      0.0000
    168.0561	      0.0000
    168.0581	    947.8900
    168.0602	   3504.8069
    168.0623	   9219.9756
    168.0643	  15482.4365
    168.0664	  18492.6113
    168.0685	  13160.3369
    168.0705	   7002.7744
    168.0726	   1670.8826
    168.0747	      0.0000
    168.0764	      0.0000
    168.0785	      0.0000
    168.0806	      0.0000
    168.0826	      0.0000
    169.0834	      0.0000
    169.0855	      0.0000
    169.0876	      0.0000
    169.0896	      0.0000
    169.0917	    893.6695
    169.0938	   2124.2153
    169.0959	   4814.4868
    169.0980	   5410.9526
    169.1001	   3683.6152
    169.1022	   1703.7234
    169.1042	    703.3082
    169.1064	      0.0000
    169.1085	      0.0000
    169.1106	      0.0000
    169.1127	      0.0000
    183.1000	      0.0000
    183.1023	      0.0000
    183.1047	      0.0000
    183.1070	      0.0000
    183.1094	    910.5687
    183.1117	   1485.4083
    183.1141	   1582.5342
    183.1164	   1122.4015
    183.1188	    474.8698
    183.1211	      0.0000
    183.1235	      0.0000
    183.1258	      0.0000
    183.1282	      0.0000
    185.0758	      0.0000
    185.0782	      0.0000
    185.0806	      0.0000
    185.0830	      0.0000
    185.0854	   1012.3876
    185.0877	   2859.6399
    185.0901	   5202.5801
    185.0925	   6750.2568
    185.0949	   5013.5210
    185.0973	   2657.6375
    185.0997	    790.6616
    185.1024	      0.0000
    185.1048	      0.0000
    185.1072	      0.0000
    185.1096	      0.0000
    186.0592	      0.0000
    186.0616	      0.0000
    186.0640	      0.0000
    186.0664	      0.0000
    186.0689	    824.2906
    186.0713	   3362.0232
    186.0737	   6922.5581
    186.0761	  10471.3291
    186.0785	   9586.3857
    186.0809	   5828.9399
    186.0833	   2359.9739
    186.0857	    510.8290
    186.0882	      0.0000
    186.0906	      0.0000
    186.0930	      0.0000
    186.0954	      0.0000
    204.0620	      0.0000
    204.0648	      0.0000
    204.0675	      0.0000
    204.0703	      0.0000
    204.0731	    909.1360
    204.0758	   2304.8396
    204.0786	   7767.4736
    204.0814	  23856.0332
    204.0841	  42463.7891
    204.0869	  58147.0352
    204.0897	  48391.0234
    204.0924	  28815.2676
    204.0952	  10600.1143
    204.0980	   2243.9387
    204.1007	    152.4849
    204.1032	      0.0000
    204.1059	      0.0000
    204.1087	      0.0000
    204.1115	      0.0000
    205.0747	      0.0000
    205.0775	      0.0000
    205.0802	      0.0000
    205.0830	      0.0000
    205.0858	    850.5793
    205.0886	   1468.5242
    205.0914	   1711.3273
    205.0942	   1432.3755
    205.0970	    851.6671
    205.0997	      0.0000
    205.1025	      0.0000
    205.1053	      0.0000
    205.1081	      0.0000
    212.0854	      0.0000
    212.0883	      0.0000
    212.0912	      0.0000
    212.0942	      0.0000
    212.0971	    683.2006
    212.1000	   1462.4126
    212.1030	   1957.5417
    212.1059	   1775.1731
    212.1088	   1066.0997
    212.1118	      0.0000
    212.1148	      0.0000
    212.1177	      0.0000
    212.1206	      0.0000
    213.0615	      0.0000
    213.0644	      0.0000
    213.0674	      0.0000
    213.0703	      0.0000
    213.0733	    386.2411
    213.0762	   1827.8500
    213.0792	   7302.7773
    213.0821	  18342.9590
    213.0851	  30334.1484
    213.0880	  35173.2422
    213.0910	  24880.8711
    213.0939	  13359.1602
    213.0969	   3813.1248
    213.0998	    935.8453
    213.1028	      0.0000
    213.1058	      0.0000
    213.1087	      0.0000
    213.1117	      0.0000
    229.0934	      0.0000
    229.0967	      0.0000
    229.1000	      0.0000
    229.1033	      0.0000
    229.1066	    551.8415
    229.1099	   1442.7708
    229.1132	   3645.7024
    229.1165	   5807.1387
    229.1198	   6075.8770
    229.1231	   4012.8093
    229.1263	   1967.7643
    229.1296	    673.5178
    229.1333	      0.0000
    229.1366	      0.0000
    229.1399	      0.0000
    229.1432	      0.0000
    230.0772	      0.0000
    230.0805	      0.0000
    230.0838	      0.0000
    230.0871	      0.0000
    230.0904	    323.9827
    230.0937	   1905.9839
    230.0970	   3533.2341
    230.1003	   6899.7021
    230.1037	  20920.9063
    230.1070	  64680.7031
    230.1103	 117768.9141
    230.1136	 165618.5938
    230.1169	 142894.7188
    230.1202	  86458.4141
    230.1235	  34199.3477
    230.1268	   8101.6304
    230.1301	   1919.6859
    230.1330	   2043.8867
    230.1363	    948.4653
    230.1399	      0.0000
    230.1432	      0.0000
    230.1465	      0.0000
    230.1498	      0.0000
    231.0733	      0.0000
    231.0766	      0.0000
    231.0799	      0.0000
    231.0833	      0.0000
    231.0866	    108.7149
    231.0899	   2842.6055
    231.0933	   6515.5244
    231.0966	   9621.1611
    231.0999	   8622.0830
    231.1033	   5369.3892
    231.1066	   2938.4758
    231.1105	   4864.4053
    231.1138	   8960.0967
    231.1171	  13025.4443
    231.1205	  11056.1514
    231.1238	   6341.9243
    231.1271	   1850.0941
    231.1305	      0.0000
    231.1330	      0.0000
    231.1364	      0.0000
    231.1397	      0.0000
    231.1430	      0.0000
    232.3343	      0.0000
    232.3376	      0.0000
    232.3410	      0.0000
    232.3444	      0.0000
    232.3477	    797.6451
    232.3511	   1378.7535
    232.3544	   1578.0150
    232.3578	   1259.4078
    232.3612	    669.3885
    232.3645	      0.0000
    232.3678	      0.0000
    232.3712	      0.0000
    232.3746	      0.0000
    241.0505	      0.0000
    241.0540	      0.0000
    241.0576	      0.0000
    241.0611	      0.0000
    241.0647	    769.1666
    241.0682	   1252.8538
    241.0718	   1454.1650
    241.0753	   1279.9279
    241.0789	    908.1911
    241.0826	      0.0000
    241.0861	      0.0000
    241.0897	      0.0000
    241.0932	      0.0000
    244.1075	      0.0000
    244.1111	      0.0000
    244.1147	      0.0000
    244.1183	      0.0000
    244.1219	    533.4016
    244.1255	   1085.0724
    244.1292	   1407.4615
    244.1328	   1260.4575
    244.1364	    761.8511
    244.1400	      0.0000
    244.1437	      0.0000
    244.1473	      0.0000
    244.1509	      0.0000
    268.0665	      0.0000
    268.0706	      0.0000
    268.0748	      0.0000
    268.0790	      0.0000
    268.0831	    650.1429
    268.0873	   1373.7378
    268.0914	   1864.3182
    268.0956	   1764.5166
    268.0998	   1154.7635
    268.1039	    456.4089
    268.1082	      0.0000
    268.1123	      0.0000
    268.1165	      0.0000
    268.1207	      0.0000
    284.0967	      0.0000
    284.1013	      0.0000
    284.1058	      0.0000
    284.1103	      0.0000
    284.1149	    821.3766
    284.1194	   1379.4938
    284.1240	   1615.8877
    284.1285	   1340.8832
    284.1331	    718.1307
    284.1376	      0.0000
    284.1421	      0.0000
    284.1467	      0.0000
    284.1512	      0.0000
    286.0737	      0.0000
    286.0783	      0.0000
    286.0829	      0.0000
    286.0875	      0.0000
    286.0920	    824.8730
    286.0966	   2061.1223
    286.1012	   4479.2271
    286.1058	   4916.5557
    286.1104	   3050.8098
    286.1150	   1188.9149
    286.1196	    691.0018
    286.1254	      0.0000
    286.1300	      0.0000
    286.1345	      0.0000
    286.1391	      0.0000
    301.1139	      0.0000
    301.1189	      0.0000
    301.1238	      0.0000
    301.1288	      0.0000
    301.1337	    735.1119
    301.1387	   3055.5371
    301.1437	   7158.2900
    301.1486	  11653.0010
    301.1536	  13066.0791
    301.1585	   9003.9639
    301.1635	   4655.7432
    301.1684	    983.7787
    301.1724	      0.0000
    301.1774	      0.0000
    301.1823	      0.0000
    301.1873	      0.0000
    316.1133	      0.0000
    316.1186	      0.0000
    316.1240	      0.0000
    316.1293	      0.0000
    316.1346	    657.0242
    316.1400	   1491.5494
    316.1453	   2355.5938
    316.1506	   2691.8052
    316.1559	   2275.6487
    316.1613	   1398.5052
    316.1666	    564.1543
    316.1720	      0.0000
    316.1774	      0.0000
    316.1827	      0.0000
    316.1880	      0.0000
    357.0928	      0.0000
    357.0992	      0.0000
    357.1056	      0.0000
    357.1120	      0.0000
    357.1184	    602.6329
    357.1248	   1560.5450
    357.1312	   3736.3206
    357.1376	   5935.9385
    357.1440	   5956.5591
    357.1504	   3735.0452
    357.1568	   1598.4171
    357.1632	    543.0342
    357.1698	      0.0000
    357.1762	      0.0000
    357.1826	      0.0000
    357.1890	      0.0000
    381.1382	      0.0000
    381.1452	      0.0000
    381.1523	      0.0000
    381.1594	      0.0000
    381.1664	   1078.6252
    381.1735	   2116.5767
    381.1805	   2644.8506
    381.1876	   2267.0635
    381.1947	   1320.4564
    381.2017	    514.3658
    381.2088	      0.0000
    381.2158	      0.0000
    381.2229	      0.0000
    381.2300	      0.0000
    386.1488	      0.0000
    386.1560	      0.0000
    386.1632	      0.0000
    386.1704	      0.0000
    386.1776	    469.8275
    386.1848	   1205.4515
    386.1920	   3418.1685
    386.1992	   5783.8711
    386.2064	   6646.6475
    386.2136	   4568.7056
    386.2208	   2315.9177
    386.2280	    746.2348
    386.2353	      0.0000
    386.2425	      0.0000
    386.2497	      0.0000
    386.2569	      0.0000
    399.1429	      0.0000
    399.1505	      0.0000
    399.1580	      0.0000
    399.1656	      0.0000
    399.1732	    760.8071
    399.1807	   1561.2792
    399.1883	   2058.8933
    399.1958	   1868.6565
    399.2034	   1137.1766
    399.2110	    376.6083
    399.2185	      0.0000
    399.2261	      0.0000
    399.2337	      0.0000
    399.2412	      0.0000
    401.1320	      0.0000
    401.1397	      0.0000
    401.1473	      0.0000
    401.1549	      0.0000
    401.1625	    657.8096
    401.1701	   1154.1719
    401.1778	   1369.8005
    401.1854	   1135.9388
    401.1930	    618.1596
    401.2008	      0.0000
    401.2084	      0.0000
    401.2161	      0.0000
    401.2237	      0.0000
    437.6080	      0.0000
    437.6167	      0.0000
    437.6254	      0.0000
    437.6341	      0.0000
    437.6428	    501.3533
    437.6515	   1086.8992
    437.6601	   1372.4349
    437.6688	   1118.2815
    437.6775	    554.3653
    437.6864	      0.0000
    437.6951	      0.0000
    437.7038	      0.0000
    437.7125	      0.0000
    470.1616	      0.0000
    470.1713	      0.0000
    470.1809	      0.0000
    470.1906	      0.0000
    470.2003	    573.1518
    470.2100	   1072.4900
    470.2196	   1374.9924
    470.2293	   1304.7460
    470.2390	    924.5740
    470.2489	      0.0000
    470.2586	      0.0000
    470.2682	      0.0000
    470.2779	      0.0000
    515.1715	      0.0000
    515.1826	      0.0000
    515.1937	      0.0000
    515.2048	      0.0000
    515.2159	    689.2274
    515.2270	   1735.7826
    515.2381	   2751.0959
    515.2492	   3006.5105
    515.2603	   2313.6709
    515.2714	   1210.8602
    515.2825	    411.7722
    515.2936	      0.0000
    515.3047	      0.0000
    515.3158	      0.0000
    515.3269	      0.0000
    586.1770	      0.0000
    586.1905	      0.0000
    586.2039	      0.0000
    586.2174	      0.0000
    586.2309	    500.4229
    586.2443	   2131.6106
    586.2578	   4541.7290
    586.2713	   7176.7891
    586.2847	   7308.5244
    586.2982	   4496.2041
    586.3117	   1783.9705
    586.3251	      0.0000
    586.3386	      0.0000
    586.3521	      0.0000
    586.3655	      0.0000
    586.3790	      0.0000
    598.1914	      0.0000
    598.2052	      0.0000
    598.2191	      0.0000
    598.2330	      0.0000
    598.2469	    450.7025
    598.2608	   1115.0682
    598.2746	   1622.9958
    598.2885	   1628.8506
    598.3024	   1160.9764
    598.3163	    545.2821
    598.3302	      0.0000
    598.3440	      0.0000
    598.3579	      0.0000
    598.3718	      0.0000
    603.1625	      0.0000
    603.1766	      0.0000
    603.1906	      0.0000
    603.2047	      0.0000
    603.2188	    726.8010
    603.2328	   1176.5566
    603.2469	   1402.2897
    603.2609	   1309.0166
    603.2750	    957.2907
    603.2891	      0.0000
    603.3031	      0.0000
    603.3172	      0.0000
    603.3312	      0.0000
    615.2132	      0.0000
    615.2277	      0.0000
    615.2422	      0.0000
    615.2566	      0.0000
    615.2711	    713.1015
    615.2856	   1636.2437
    615.3001	   2369.4346
    615.3146	   2357.6309
    615.3290	   1596.3832
    615.3435	    648.0588
    615.3580	      0.0000
    615.3725	      0.0000
    615.3870	      0.0000
    615.4015	      0.0000
    662.1611	      0.0000
    662.1773	      0.0000
    662.1934	      0.0000
    662.2096	      0.0000
    662.2257	    630.7406
    662.2419	   1191.3778
    662.2581	   1531.9530
    662.2742	   1404.3398
    662.2904	    886.9667
    662.3066	      0.0000
    662.3228	      0.0000
    662.3390	      0.0000
    662.3551	      0.0000
    687.2063	      0.0000
    687.2234	      0.0000
    687.2404	      0.0000
    687.2575	      0.0000
    687.2746	    329.9321
    687.2917	   1294.2413
    687.3088	   2538.4321
    687.3259	   3210.2913
    687.3430	   2753.7991
    687.3601	   1551.8369
    687.3772	    571.7725
    687.3943	      0.0000
    687.4114	      0.0000
    687.4285	      0.0000
    687.4456	      0.0000
    688.2327	      0.0000
    688.2498	      0.0000
    688.2669	      0.0000
    688.2841	      0.0000
    688.3012	    517.3470
    688.3183	   1209.9574
    688.3355	   1589.4502
    688.3526	   1400.4910
    688.3697	    821.4562
    688.3869	      0.0000
    688.4040	      0.0000
    688.4211	      0.0000
    688.4383	      0.0000
    699.1678	      0.0000
    699.1853	      0.0000
    699.2029	      0.0000
    699.2204	      0.0000
    699.2380	    481.5830
    699.2555	   1382.1439
    699.2730	   2310.2966
    699.2906	   2626.4463
    699.3081	   2102.3823
    699.3257	   1136.6581
