# ljz_20131022_MR_Chym1_ELUTE.mzML
#
# index: 7406
# id: controllerType=0 controllerNumber=1 scan=19825
# scanNumber: 19825
# massAnalyzerType: quadrupole
# scanEvent: 2
# msLevel: 2
# retentionTime: 5068.27
# filterString: FTMS + p NSI d Full ms2 1018.11@hcd28.00 [100.00-3135.00]
# mzLow: 99.0035
# mzHigh: 3167.28
# basePeakMZ: 204.087
# basePeakIntensity: 55654.4
# totalIonCurrent: 241670
# precursorCount: 1
# precursor 0: 1017.78 426892
# binary (446): 
     99.0035	      0.0000
     99.0044	      0.0000
     99.0053	      0.0000
     99.0063	      0.0000
    115.0284	      0.0000
    115.0295	      0.0000
    115.0307	      0.0000
    115.0319	      0.0000
    115.0331	    427.5994
    115.0342	   1645.4983
    115.0354	   4239.0278
    115.0366	   7075.1172
    115.0377	   8960.2705
    115.0389	   7144.4282
    115.0401	   4191.7974
    115.0412	   1458.7804
    115.0424	    644.0803
    115.0438	      0.0000
    115.0449	      0.0000
    115.0461	      0.0000
    115.0473	      0.0000
    126.0442	      0.0000
    126.0455	      0.0000
    126.0469	      0.0000
    126.0482	      0.0000
    126.0495	    978.0430
    126.0509	   2530.2830
    126.0522	   7796.4199
    126.0536	  16307.9111
    126.0549	  25531.2637
    126.0563	  26193.4531
    126.0576	  16884.5762
    126.0589	   7989.3901
    126.0603	   1668.4935
    126.0616	     85.2343
    126.0627	      0.0000
    126.0640	      0.0000
    126.0654	      0.0000
    126.0667	      0.0000
    127.0295	      0.0000
    127.0308	      0.0000
    127.0322	      0.0000
    127.0336	      0.0000
    127.0349	    706.8865
    127.0363	   2805.1292
    127.0376	   5491.3818
    127.0390	   8063.5366
    127.0403	   7531.1221
    127.0417	   4675.6787
    127.0431	   1995.2050
    127.0444	    745.1807
    127.0459	      0.0000
    127.0473	      0.0000
    127.0486	      0.0000
    127.0500	      0.0000
    138.0418	      0.0000
    138.0433	      0.0000
    138.0448	      0.0000
    138.0464	      0.0000
    138.0479	    542.2650
    138.0495	   2241.4465
    138.0510	   7958.4297
    138.0525	  20002.5410
    138.0541	  33218.2188
    138.0556	  39674.9648
    138.0572	  28712.9473
    138.0587	  15807.1230
    138.0602	   4358.8262
    138.0618	    566.9330
    138.0631	      0.0000
    138.0646	      0.0000
    138.0662	      0.0000
    138.0677	      0.0000
    139.0485	      0.0000
    139.0501	      0.0000
    139.0516	      0.0000
    139.0532	      0.0000
    139.0547	    737.0013
    139.0563	   1488.2523
    139.0579	   2072.7205
    139.0594	   2079.1428
    139.0610	   1468.6083
    139.0625	    671.6564
    139.0641	      0.0000
    139.0657	      0.0000
    139.0672	      0.0000
    139.0688	      0.0000
    144.0540	      0.0000
    144.0556	      0.0000
    144.0573	      0.0000
    144.0589	      0.0000
    144.0606	    596.4042
    144.0622	   1223.1727
    144.0638	   1811.4005
    144.0655	   2037.4833
    144.0671	   1754.4666
    144.0688	   1130.9346
    144.0704	    504.9034
    144.0720	      0.0000
    144.0737	      0.0000
    144.0753	      0.0000
    144.0770	      0.0000
    145.0381	      0.0000
    145.0398	      0.0000
    145.0414	      0.0000
    145.0431	      0.0000
    145.0447	    655.9904
    145.0464	   1626.3420
    145.0480	   2695.6794
    145.0497	   3146.4595
    145.0513	   2639.4431
    145.0530	   1546.9385
    145.0547	    586.0212
    145.0564	      0.0000
    145.0580	      0.0000
    145.0597	      0.0000
    145.0613	      0.0000
    159.0658	      0.0000
    159.0677	      0.0000
    159.0696	      0.0000
    159.0715	      0.0000
    159.0734	    917.6160
    159.0753	   1558.2338
    159.0772	   1705.1793
    159.0791	   1241.3273
    159.0810	    560.1747
    159.0829	      0.0000
    159.0848	      0.0000
    159.0867	      0.0000
    159.0886	      0.0000
    163.0457	      0.0000
    163.0476	      0.0000
    163.0496	      0.0000
    163.0516	      0.0000
    163.0536	    442.9729
    163.0555	   1503.2572
    163.0575	   4437.5303
    163.0595	   6767.0415
    163.0615	   6277.0649
    163.0634	   3647.1943
    163.0654	   1244.9510
    163.0674	    625.0876
    163.0696	      0.0000
    163.0716	      0.0000
    163.0735	      0.0000
    163.0755	      0.0000
    168.0477	      0.0000
    168.0498	      0.0000
    168.0518	      0.0000
    168.0539	      0.0000
    168.0560	    531.5655
    168.0580	   1432.3571
    168.0601	   5237.2100
    168.0622	  13221.1982
    168.0642	  21933.6133
    168.0663	  25623.2832
    168.0684	  18056.4688
    168.0704	   9562.4404
    168.0725	   2385.0579
    168.0746	    136.7218
    168.0765	      0.0000
    168.0786	      0.0000
    168.0806	      0.0000
    168.0827	      0.0000
    186.0565	      0.0000
    186.0589	      0.0000
    186.0613	      0.0000
    186.0637	      0.0000
    186.0661	     15.9530
    186.0685	   1243.4666
    186.0709	   4893.3374
    186.0733	   9575.4463
    186.0757	  14145.2773
    186.0782	  12926.1240
    186.0806	   7981.1836
    186.0830	   3427.8530
    186.0854	    825.3175
    186.0878	      0.0000
    186.0902	      0.0000
    186.0926	      0.0000
    186.0950	      0.0000
    202.0634	      0.0000
    202.0662	      0.0000
    202.0689	      0.0000
    202.0716	      0.0000
    202.0743	    756.0582
    202.0771	   1974.5612
    202.0798	   4867.3940
    202.0825	   6322.3887
    202.0852	   5079.6187
    202.0880	   2945.0269
    202.0907	   1148.0326
    202.0934	    435.2691
    202.0966	      0.0000
    202.0994	      0.0000
    202.1021	      0.0000
    202.1048	      0.0000
    204.0538	      0.0000
    204.0566	      0.0000
    204.0593	      0.0000
    204.0621	      0.0000
    204.0649	      0.0000
    204.0676	   1508.9261
    204.0704	   1524.9146
    204.0732	   1859.0221
    204.0759	   2618.6855
    204.0787	   7170.4937
    204.0814	  22197.6270
    204.0842	  40071.1836
    204.0870	  55447.1641
    204.0897	  46431.0664
    204.0925	  27490.9395
    204.0953	   9895.8809
    204.0980	   1835.9985
    204.1008	     37.7578
    204.1032	      0.0000
    204.1059	      0.0000
    204.1087	      0.0000
    204.1115	    518.4650
    204.1142	   1257.0181
    204.1170	   1560.2163
    204.1198	   1218.9668
    204.1225	    626.0754
    204.1253	      0.0000
    204.1280	      0.0000
    204.1308	      0.0000
    204.1336	      0.0000
    205.0719	      0.0000
    205.0747	      0.0000
    205.0774	      0.0000
    205.0802	      0.0000
    205.0830	    691.0687
    205.0858	   1579.4365
    205.0886	   2328.0112
    205.0914	   2364.6970
    205.0942	   1640.3159
    205.0969	    692.2404
    205.0999	      0.0000
    205.1027	      0.0000
    205.1055	      0.0000
    205.1082	      0.0000
    273.0901	      0.0000
    273.0944	      0.0000
    273.0986	      0.0000
    273.1029	      0.0000
    273.1072	    699.4346
    273.1115	   1448.8036
    273.1158	   2073.7676
    273.1200	   2140.5769
    273.1243	   1566.5297
    273.1286	    734.1194
    273.1334	      0.0000
    273.1377	      0.0000
    273.1420	      0.0000
    273.1463	      0.0000
    366.0925	      0.0000
    366.0992	      0.0000
    366.1058	      0.0000
    366.1125	      0.0000
    366.1191	    987.7160
    366.1257	   3395.2617
    366.1324	   6106.6758
    366.1390	   8478.2754
    366.1457	   7350.2954
    366.1523	   4408.7778
    366.1590	   1688.9172
    366.1656	    705.6923
    366.1726	      0.0000
    366.1792	      0.0000
    366.1859	      0.0000
    366.1925	      0.0000
    454.5019	      0.0000
    454.5111	      0.0000
    454.5203	      0.0000
    454.5295	      0.0000
    454.5387	    838.6130
    454.5479	   1417.9095
    454.5571	   1638.0078
    454.5663	   1363.5393
    454.5755	    795.1387
    454.5849	      0.0000
    454.5941	      0.0000
    454.6033	      0.0000
    454.6125	      0.0000
    477.1625	      0.0000
    477.1724	      0.0000
    477.1823	      0.0000
    477.1921	      0.0000
    477.2020	    534.4717
    477.2119	   1301.8108
    477.2218	   1941.8142
    477.2317	   1930.4170
    477.2416	   1260.4380
    477.2515	    463.1338
    477.2620	      0.0000
    477.2719	      0.0000
    477.2818	      0.0000
    477.2917	      0.0000
    868.7496	      0.0000
    868.7738	      0.0000
    868.7981	      0.0000
    868.8224	      0.0000
    868.8467	    803.6249
    868.8710	   1303.8638
    868.8953	   1490.7273
    868.9196	   1213.6538
    868.9439	    635.5921
    868.9682	      0.0000
    868.9925	      0.0000
    869.0168	      0.0000
    869.0411	      0.0000
    888.2598	      0.0000
    888.2850	      0.0000
    888.3101	      0.0000
    888.3352	      0.0000
    888.3603	    601.4746
    888.3854	   1203.8038
    888.4105	   1510.1550
    888.4356	   1330.7883
    888.4608	    818.6748
    888.4859	      0.0000
    888.5110	      0.0000
    888.5361	      0.0000
    888.5613	      0.0000
    899.6685	      0.0000
    899.6941	      0.0000
    899.7197	      0.0000
    899.7453	      0.0000
    899.7709	   1015.7393
    899.7965	   1473.8015
    899.8221	   1668.7361
    899.8477	   1457.8301
    899.8733	    924.1951
    899.8990	      0.0000
    899.9246	      0.0000
    899.9502	      0.0000
    899.9758	      0.0000
    940.7495	      0.0000
    940.7768	      0.0000
    940.8042	      0.0000
    940.8316	      0.0000
    940.8590	    703.2065
    940.8863	   1569.6776
    940.9137	   2337.6523
    940.9411	   2505.5122
    940.9685	   1977.2020
    940.9958	   1121.9728
    941.0237	      0.0000
    941.0511	      0.0000
    941.0785	      0.0000
    941.1059	      0.0000
   1404.3669	      0.0000
   1404.4168	      0.0000
   1404.4668	      0.0000
   1404.5167	      0.0000
   1404.5666	    973.1795
   1404.6166	   1603.4445
   1404.6665	   1839.3038
   1404.7164	   1530.2839
   1404.7664	    893.6465
   1404.8151	      0.0000
   1404.8650	      0.0000
   1404.9150	      0.0000
   1404.9649	      0.0000
   1456.8085	      0.0000
   1456.8612	      0.0000
   1456.9140	      0.0000
   1456.9667	      0.0000
   1457.0195	   1198.6991
   1457.0722	   1818.2904
   1457.1250	   2072.4065
   1457.1778	   1752.7727
   1457.2305	   1041.2726
   1457.2833	      0.0000
   1457.3361	      0.0000
   1457.3888	      0.0000
   1457.4416	      0.0000
   1607.3776	      0.0000
   1607.4388	      0.0000
   1607.4999	      0.0000
   1607.5610	      0.0000
   1607.6222	    967.7344
   1607.6833	   1591.5511
   1607.7445	   1762.3450
   1607.8056	   1367.2003
   1607.8668	    707.0493
   1607.9279	      0.0000
   1607.9891	      0.0000
   1608.0502	      0.0000
   1608.1114	      0.0000
   1706.3499	      0.0000
   1706.4168	      0.0000
   1706.4837	      0.0000
   1706.5505	      0.0000
   1706.6174	    723.5867
   1706.6843	   1590.3118
   1706.7512	   2217.6694
   1706.8180	   2071.9023
   1706.8849	   1238.6498
   1706.9518	      0.0000
   1707.0187	      0.0000
   1707.0856	      0.0000
   1707.1525	      0.0000
   2639.5118	      0.0000
   2639.6405	      0.0000
   2639.7691	      0.0000
   2639.8978	      0.0000
   2640.0264	    957.4506
   2640.1551	   1846.8241
   2640.2838	   2307.7346
   2640.4125	   2024.8156
   2640.5412	   1237.6760
   2640.6699	      0.0000
   2640.7986	      0.0000
   2640.9273	      0.0000
   2641.0561	      0.0000
   2768.0208	      0.0000
   2768.1589	      0.0000
   2768.2971	      0.0000
   2768.4352	      0.0000
   2768.5734	    724.1692
   2768.7116	   1409.2910
   2768.8498	   1774.0648
   2768.9880	   1502.8872
   2769.1262	    786.3719
   2769.2644	      0.0000
   2769.4026	      0.0000
   2769.5408	      0.0000
   2769.6791	      0.0000
   2956.2730	      0.0000
   2956.4255	      0.0000
   2956.5780	      0.0000
   2956.7304	      0.0000
   2956.8830	    958.9599
   2957.0355	   1540.8734
   2957.1880	   1769.1315
   2957.3405	   1497.9119
   2957.4931	    898.7256
   2957.6457	      0.0000
   2957.7982	      0.0000
   2957.9508	      0.0000
   2958.1034	      0.0000
   3166.7690	      0.0000
   3166.9381	      0.0000
   3167.1071	      0.0000
   3167.2762	      0.0000
