# ljz_20131022_MR_Chym1_ELUTE.mzML
#
# index: 4865
# id: controllerType=0 controllerNumber=1 scan=11151
# scanNumber: 11151
# massAnalyzerType: quadrupole
# scanEvent: 2
# msLevel: 2
# retentionTime: 2728.09
# filterString: FTMS + p NSI d Full ms2 694.33@hcd28.00 [100.00-1435.00]
# mzLow: 99.0035
# mzHigh: 1449.66
# basePeakMZ: 110.072
# basePeakIntensity: 184941
# totalIonCurrent: 1.35636e+006
# precursorCount: 1
# precursor 0: 694.328 973252
# binary (2271): 
     99.0035	      0.0000
     99.0045	      0.0000
     99.0054	      0.0000
     99.0063	      0.0000
    107.9608	      0.0000
    107.9618	      0.0000
    107.9629	      0.0000
    107.9640	      0.0000
    107.9650	    474.4637
    107.9661	    990.2545
    107.9671	   1365.1792
    107.9682	   1353.7147
    107.9693	    980.6693
    107.9706	      0.0000
    107.9717	      0.0000
    107.9727	      0.0000
    107.9738	      0.0000
    110.0585	      0.0000
    110.0596	      0.0000
    110.0607	      0.0000
    110.0618	      0.0000
    110.0629	    608.2471
    110.0640	   1785.9979
    110.0651	   2380.2114
    110.0662	   5412.2603
    110.0673	   8756.6045
    110.0684	  21352.2480
    110.0695	  63436.8047
    110.0706	 121810.2188
    110.0717	 180837.4063
    110.0728	 169777.5000
    110.0739	 105585.8203
    110.0750	  45979.7695
    110.0760	   9622.8428
    110.0771	   1305.5553
    110.0780	      0.0000
    110.0791	      0.0000
    110.0802	      0.0000
    110.0813	      0.0000
    110.0823	      0.0000
    110.0834	      0.0000
    110.0845	      0.0000
    110.0856	      0.0000
    110.0966	      0.0000
    110.0977	      0.0000
    110.0988	      0.0000
    110.0999	      0.0000
    110.1010	      0.0000
    110.1021	      0.0000
    110.1032	      0.0000
    110.1043	      0.0000
    110.1054	      0.0000
    110.1064	      0.0000
    110.1075	      0.0000
    110.1086	      0.0000
    110.1097	      0.0000
    111.0617	      0.0000
    111.0628	      0.0000
    111.0639	      0.0000
    111.0650	      0.0000
    111.0661	    419.9102
    111.0672	   1037.6565
    111.0683	   1406.1808
    111.0695	   1135.1017
    111.0706	    595.3663
    111.0717	    729.0542
    111.0728	   2944.1719
    111.0739	   5438.1655
    111.0750	   7379.7827
    111.0761	   5718.8975
    111.0772	   3135.9705
    111.0783	    654.0244
    111.0795	      0.0000
    111.0806	      0.0000
    111.0818	      0.0000
    111.0829	      0.0000
    120.0718	      0.0000
    120.0731	      0.0000
    120.0743	      0.0000
    120.0756	      0.0000
    120.0768	    891.4580
    120.0781	   3325.9460
    120.0793	   7920.7036
    120.0806	  12882.2588
    120.0818	  14103.0039
    120.0830	   9437.4678
    120.0843	   4626.4014
    120.0855	    988.7125
    120.0868	    104.3561
    120.0878	      0.0000
    120.0891	      0.0000
    120.0903	      0.0000
    120.0916	      0.0000
    126.0452	      0.0000
    126.0466	      0.0000
    126.0479	      0.0000
    126.0492	      0.0000
    126.0506	    495.7907
    126.0519	   1578.5942
    126.0533	   3805.4902
    126.0546	   6211.4985
    126.0560	   6828.1338
    126.0573	   4574.5205
    126.0586	   2232.6997
    126.0600	    850.0789
    126.0613	      0.0000
    126.0626	      0.0000
    126.0640	      0.0000
    126.0653	      0.0000
    129.0927	      0.0000
    129.0941	      0.0000
    129.0955	      0.0000
    129.0969	      0.0000
    129.0982	    719.1801
    129.0996	   1725.9414
    129.1010	   3952.7375
    129.1024	   5239.1372
    129.1038	   4235.8228
    129.1052	   2039.0770
    129.1066	    968.4812
    129.1081	      0.0000
    129.1095	      0.0000
    129.1109	      0.0000
    129.1123	      0.0000
    132.0907	      0.0000
    132.0922	      0.0000
    132.0936	      0.0000
    132.0950	      0.0000
    132.0965	    190.7766
    132.0979	   2065.3730
    132.0994	   6213.1865
    132.1008	  10743.8857
    132.1022	  13990.7754
    132.1037	  11182.7441
    132.1051	   6632.1987
    132.1066	   2325.5947
    132.1080	    569.4935
    132.1093	      0.0000
    132.1107	      0.0000
    132.1122	      0.0000
    132.1136	      0.0000
    136.0767	      0.0000
    136.0782	      0.0000
    136.0797	      0.0000
    136.0812	      0.0000
    136.0827	    570.3900
    136.0842	   1416.2543
    136.0857	   2387.0105
    136.0872	   2861.5435
    136.0887	   2496.4326
    136.0902	   1548.0120
    136.0917	    629.9897
    136.0932	      0.0000
    136.0947	      0.0000
    136.0962	      0.0000
    136.0977	      0.0000
    138.0431	      0.0000
    138.0446	      0.0000
    138.0462	      0.0000
    138.0477	      0.0000
    138.0492	    596.4335
    138.0508	   1098.4569
    138.0523	   3996.0024
    138.0538	   7129.1729
    138.0554	   9192.0225
    138.0569	   6940.0835
    138.0585	   4046.4014
    138.0600	   1326.3164
    138.0615	    801.0004
    138.0631	   2014.7825
    138.0646	   3724.5781
    138.0662	   4903.1606
    138.0677	   4083.4971
    138.0692	   1816.1042
    138.0708	    782.1065
    138.0723	      0.0000
    138.0738	      0.0000
    138.0754	      0.0000
    138.0769	      0.0000
    138.9459	      0.0000
    138.9475	      0.0000
    138.9490	      0.0000
    138.9506	      0.0000
    138.9521	      0.0000
    138.9537	      0.0000
    138.9552	      0.0000
    138.9568	      0.0000
    138.9584	      0.0000
    138.9599	      0.0000
    138.9615	      0.0000
    138.9630	      0.0000
    138.9646	      0.0000
    139.0578	      0.0000
    139.0594	      0.0000
    139.0610	      0.0000
    139.0625	      0.0000
    139.0641	    705.4952
    139.0656	   1375.3286
    139.0672	   1831.5067
    139.0687	   1780.9995
    139.0703	   1303.5280
    139.0718	    708.5201
    139.0734	      0.0000
    139.0750	      0.0000
    139.0765	      0.0000
    139.0781	      0.0000
    145.0513	      0.0000
    145.0530	      0.0000
    145.0547	      0.0000
    145.0563	      0.0000
    145.0580	    506.7645
    145.0596	   1240.9961
    145.0613	   1721.2026
    145.0629	   1582.7997
    145.0646	    987.0665
    145.0663	    402.4026
    145.0679	      0.0000
    145.0696	      0.0000
    145.0712	      0.0000
    145.0729	      0.0000
    147.0655	      0.0000
    147.0672	      0.0000
    147.0689	      0.0000
    147.0706	      0.0000
    147.0723	    406.6000
    147.0740	   1013.6937
    147.0757	   1586.3099
    147.0774	   1733.3488
    147.0791	   1388.7094
    147.0807	    807.4461
    147.0825	      0.0000
    147.0842	      0.0000
    147.0859	      0.0000
    147.0876	      0.0000
    156.0661	      0.0000
    156.0680	      0.0000
    156.0698	      0.0000
    156.0717	      0.0000
    156.0735	    467.1254
    156.0754	   1077.2303
    156.0772	   1380.5293
    156.0791	   1129.4015
    156.0809	    546.0012
    156.0833	      0.0000
    156.0852	      0.0000
    156.0870	      0.0000
    156.0889	      0.0000
    159.0987	      0.0000
    159.1006	      0.0000
    159.1025	      0.0000
    159.1044	      0.0000
    159.1063	    667.9851
    159.1082	   1826.7439
    159.1101	   4857.6768
    159.1120	   8259.4102
    159.1140	   9905.2520
    159.1159	   6998.3809
    159.1178	   3658.1438
    159.1197	    653.2548
    159.1210	      0.0000
    159.1229	      0.0000
    159.1248	      0.0000
    159.1267	      0.0000
    162.0784	      0.0000
    162.0803	      0.0000
    162.0823	      0.0000
    162.0843	      0.0000
    162.0862	    683.4928
    162.0882	   1587.7927
    162.0901	   2504.1577
    162.0921	   2807.2239
    162.0940	   2284.1868
    162.0960	   1321.6714
    162.0980	    532.3810
    162.1000	      0.0000
    162.1019	      0.0000
    162.1039	      0.0000
    162.1058	      0.0000
    164.0695	      0.0000
    164.0715	      0.0000
    164.0735	      0.0000
    164.0755	      0.0000
    164.0775	    478.1242
    164.0795	   1087.8560
    164.0815	   1486.4672
    164.0835	   1372.8990
    164.0855	    846.7929
    164.0875	      0.0000
    164.0894	      0.0000
    164.0914	      0.0000
    164.0934	      0.0000
    164.1054	      0.0000
    164.1074	      0.0000
    164.1094	      0.0000
    164.1114	      0.0000
    164.1134	    548.3002
    164.1154	   1365.1504
    164.1174	   2082.0393
    164.1194	   2186.2227
    164.1214	   1596.1826
    164.1233	    766.8390
    164.1253	      0.0000
    164.1273	      0.0000
    164.1293	      0.0000
    164.1313	      0.0000
    168.0537	      0.0000
    168.0558	      0.0000
    168.0578	      0.0000
    168.0599	      0.0000
    168.0620	    562.2948
    168.0640	   1230.2827
    168.0661	   1666.6238
    168.0682	   1525.6934
    168.0702	    918.3665
    168.0723	      0.0000
    168.0744	      0.0000
    168.0765	      0.0000
    168.0785	      0.0000
    173.1166	      0.0000
    173.1188	      0.0000
    173.1209	      0.0000
    173.1231	      0.0000
    173.1253	    883.4695
    173.1274	   1413.2931
    173.1296	   1579.5935
    173.1317	   1289.4354
    173.1339	    764.1881
    173.1360	      0.0000
    173.1382	      0.0000
    173.1403	      0.0000
    173.1425	      0.0000
    180.0642	      0.0000
    180.0665	      0.0000
    180.0688	      0.0000
    180.0711	      0.0000
    180.0734	    470.1696
    180.0757	    974.0051
    180.0779	   1283.9647
    180.0802	   1202.0496
    180.0825	    795.2291
    180.0852	      0.0000
    180.0874	      0.0000
    180.0897	      0.0000
    180.0920	      0.0000
    181.0911	      0.0000
    181.0934	      0.0000
    181.0957	      0.0000
    181.0980	      0.0000
    181.1003	    763.6392
    181.1026	   3257.5344
    181.1050	   8458.7139
    181.1073	  14193.6973
    181.1096	  17070.5996
    181.1119	  12347.2344
    181.1142	   6754.7256
    181.1165	   1746.5197
    181.1188	      1.5653
    181.1209	      0.0000
    181.1232	      0.0000
    181.1255	      0.0000
    181.1278	      0.0000
    187.0910	      0.0000
    187.0935	      0.0000
    187.0959	      0.0000
    187.0983	      0.0000
    187.1008	    579.3221
    187.1032	   1579.0862
    187.1056	   2716.3230
    187.1080	   4960.0913
    187.1105	   3883.1160
    187.1129	   1775.1180
    187.1153	    737.6709
    187.1177	      0.0000
    187.1202	      0.0000
    187.1226	      0.0000
    187.1250	      0.0000
    188.0560	      0.0000
    188.0584	      0.0000
    188.0609	      0.0000
    188.0633	      0.0000
    188.0658	    660.0892
    188.0682	   1228.9286
    188.0707	   1432.2108
    188.0731	   1109.7186
    188.0756	    516.3246
    188.0781	      0.0000
    188.0805	      0.0000
    188.0829	      0.0000
    188.0854	      0.0000
    197.0739	      0.0000
    197.0765	      0.0000
    197.0791	      0.0000
    197.0817	      0.0000
    197.0844	    592.7885
    197.0870	   1543.3790
    197.0896	   2555.8560
    197.0922	   2836.3647
    197.0949	   2121.5522
    197.0975	    985.8046
    197.1001	      0.0000
    197.1027	      0.0000
    197.1054	      0.0000
    197.1080	      0.0000
    200.0703	      0.0000
    200.0730	      0.0000
    200.0757	      0.0000
    200.0784	      0.0000
    200.0811	    870.0740
    200.0838	   1663.6849
    200.0865	   1979.0232
    200.0891	   1547.2405
    200.0918	    778.1888
    200.0945	      0.0000
    200.0972	    810.2534
    200.0999	   1583.1716
    200.1026	   2011.7208
    200.1052	   1731.4426
    200.1079	    998.0110
    200.1106	    320.6118
    200.1133	      0.0000
    200.1160	      0.0000
    200.1187	      0.0000
    200.1214	      0.0000
    201.0727	      0.0000
    201.0754	      0.0000
    201.0781	      0.0000
    201.0808	      0.0000
    201.0835	    712.5621
    201.0862	   1296.7129
    201.0889	   1512.4120
    201.0916	   1199.9850
    201.0943	    611.5099
    201.0970	      0.0000
    201.0997	      0.0000
    201.1024	      0.0000
    201.1051	      0.0000
    202.0634	      0.0000
    202.0662	      0.0000
    202.0689	      0.0000
    202.0716	      0.0000
    202.0743	    640.4403
    202.0771	   1480.1545
    202.0798	   2242.6768
    202.0825	   2375.2585
    202.0852	   1778.9736
    202.0880	    895.0803
    202.0908	      0.0000
    202.0935	      0.0000
    202.0962	      0.0000
    202.0989	      0.0000
    204.0672	      0.0000
    204.0700	      0.0000
    204.0727	      0.0000
    204.0755	      0.0000
    204.0783	    838.0612
    204.0810	   2666.6650
    204.0838	   4884.3594
    204.0866	   6740.5840
    204.0893	   5488.0298
    204.0921	   3187.8159
    204.0949	   1024.4675
    204.0976	    472.9436
    204.1004	      0.0000
    204.1031	      0.0000
    204.1059	      0.0000
    204.1087	      0.0000
    205.0802	      0.0000
    205.0830	      0.0000
    205.0858	      0.0000
    205.0886	      0.0000
    205.0914	    860.4647
    205.0942	   1718.0570
    205.0969	   2304.3748
    205.0997	   2190.7566
    205.1025	   1458.2017
    205.1053	    641.8182
    205.1085	      0.0000
    205.1113	      0.0000
    205.1140	      0.0000
    205.1168	      0.0000
    207.0842	      0.0000
    207.0870	      0.0000
    207.0899	      0.0000
    207.0927	      0.0000
    207.0955	    626.5266
    207.0983	   1857.4374
    207.1012	   3374.9255
    207.1040	  10037.4443
    207.1068	  32577.5371
    207.1096	  64602.9258
    207.1125	  97978.5469
    207.1153	  94787.2344
    207.1181	  59994.0977
    207.1210	  27618.2461
    207.1238	   6735.5161
    207.1266	   1504.4280
    207.1290	      0.0000
    207.1319	      0.0000
    207.1347	   2328.1228
    207.1375	      0.0000
    207.1408	      0.0000
    207.1437	      0.0000
    207.1465	      0.0000
    207.1493	      0.0000
    208.0943	      0.0000
    208.0971	      0.0000
    208.1000	      0.0000
    208.1028	      0.0000
    208.1056	    638.7886
    208.1085	   2392.5229
    208.1113	   6937.0234
    208.1142	  11801.9160
    208.1170	  15146.9199
    208.1199	  11705.7285
    208.1227	   6765.9331
    208.1256	   1996.8746
    208.1284	    343.9587
    208.1308	      0.0000
    208.1336	      0.0000
    208.1365	      0.0000
    208.1393	      0.0000
    210.0089	      0.0000
    210.0118	      0.0000
    210.0147	      0.0000
    210.0176	      0.0000
    210.0205	    726.7831
    210.0234	   1286.2316
    210.0263	   1585.0681
    210.0291	   1417.4700
    210.0320	    904.6892
    210.0349	      0.0000
    210.0378	      0.0000
    210.0407	      0.0000
    210.0436	      0.0000
    212.0854	      0.0000
    212.0883	      0.0000
    212.0912	      0.0000
    212.0941	      0.0000
    212.0971	    725.1763
    212.1000	   1595.1555
    212.1029	   2256.7275
    212.1059	   2223.5762
    212.1088	   1517.1880
    212.1117	    682.2693
    212.1147	      0.0000
    212.1176	      0.0000
    212.1206	      0.0000
    212.1235	      0.0000
    219.1169	      0.0000
    219.1200	      0.0000
    219.1231	      0.0000
    219.1261	      0.0000
    219.1292	    566.1771
    219.1323	   1202.2122
    219.1354	   1441.7700
    219.1385	   1081.5751
    219.1415	    450.4792
    219.1446	      0.0000
    219.1477	      0.0000
    219.1507	      0.0000
    219.1538	      0.0000
    225.0655	      0.0000
    225.0687	      0.0000
    225.0719	      0.0000
    225.0751	      0.0000
    225.0783	   1033.3732
    225.0815	   3695.6021
    225.0847	   6480.1470
    225.0879	   8005.3389
    225.0911	   6901.0967
    225.0943	   5228.6646
    225.0975	   1432.7734
    225.1007	    843.4092
    225.1039	      0.0000
    225.1071	      0.0000
    225.1103	      0.0000
    225.1135	      0.0000
    228.0575	      0.0000
    228.0608	      0.0000
    228.0640	      0.0000
    228.0673	      0.0000
    228.0706	    554.9335
    228.0738	   1602.5398
    228.0771	   3644.0298
    228.0804	   5236.4077
    228.0836	   4228.4766
    228.0869	   1971.8633
    228.0902	    782.6452
    228.0935	      0.0000
    228.0968	      0.0000
    228.1001	      0.0000
    228.1033	      0.0000
    230.0569	      0.0000
    230.0602	      0.0000
    230.0635	      0.0000
    230.0668	      0.0000
    230.0701	    900.9879
    230.0734	   1880.0723
    230.0767	   2647.3281
    230.0800	   2713.5439
    230.0833	   2074.2771
    230.0867	   1175.7527
    230.0900	    485.1481
    230.0933	      0.0000
    230.0966	      0.0000
    230.0999	      0.0000
    230.1032	      0.0000
    231.1463	      0.0000
    231.1497	      0.0000
    231.1530	      0.0000
    231.1563	      0.0000
    231.1597	    422.0233
    231.1630	   2441.2043
    231.1663	   5007.1133
    231.1697	   7520.6704
    231.1730	   6828.2358
    231.1763	   4121.1543
    231.1797	   1632.0486
    231.1830	    660.2679
    231.1863	      0.0000
    231.1897	      0.0000
    231.1930	      0.0000
    231.1963	      0.0000
    235.0621	      0.0000
    235.0655	      0.0000
    235.0690	      0.0000
    235.0724	      0.0000
    235.0758	    887.4133
    235.0792	   2214.0166
    235.0826	   5254.0229
    235.0861	   4891.0786
    235.0895	   3356.6089
    235.0929	   2044.0948
    235.0963	   4081.3164
    235.0997	  14043.3760
    235.1031	  29190.5156
    235.1066	  45472.4180
    235.1100	  45914.0000
    235.1134	  29510.4863
    235.1168	  14075.5195
    235.1202	   3490.0637
    235.1237	    744.2733
    235.1271	      0.0000
    235.1305	      0.0000
    235.1339	      0.0000
    235.1373	      0.0000
    236.0841	      0.0000
    236.0876	      0.0000
    236.0910	      0.0000
    236.0945	      0.0000
    236.0979	    359.8353
    236.1013	   1082.4333
    236.1048	   3541.3296
    236.1082	   5835.7134
    236.1117	   7187.1821
    236.1151	   5453.3037
    236.1186	   3002.5906
    236.1220	    675.1028
    236.1254	      0.0000
    236.1289	      0.0000
    236.1323	      0.0000
    236.1357	      0.0000
    242.1261	      0.0000
    242.1297	      0.0000
    242.1333	      0.0000
    242.1368	      0.0000
    242.1404	    889.7160
    242.1440	   2908.6978
    242.1476	   4905.3149
    242.1511	   5804.6211
    242.1547	   4050.7354
    242.1583	   2063.8955
    242.1619	    871.8229
    242.1656	      0.0000
    242.1691	      0.0000
    242.1727	      0.0000
    242.1763	      0.0000
    243.1120	      0.0000
    243.1156	      0.0000
    243.1192	      0.0000
    243.1228	      0.0000
    243.1264	    631.3256
    243.1300	   1513.2820
    243.1336	   2143.4854
    243.1372	   1969.4606
    243.1408	   1149.0441
    243.1444	    408.1850
    243.1481	      0.0000
    243.1517	      0.0000
    243.1553	      0.0000
    243.1589	      0.0000
    253.0539	      0.0000
    253.0577	      0.0000
    253.0615	      0.0000
    253.0654	      0.0000
    253.0692	    809.6052
    253.0730	   1192.3566
    253.0768	   1618.1228
    253.0806	   4981.6553
    253.0844	  17387.5703
    253.0883	  35525.2773
    253.0921	  54726.7539
    253.0959	  54126.3203
    253.0997	  34590.8164
    253.1035	  16365.6406
    253.1074	   4289.8882
    253.1112	   1090.8435
    253.1150	    852.8784
    253.1186	      0.0000
    253.1225	      0.0000
    253.1263	      0.0000
    253.1301	      0.0000
    254.0686	      0.0000
    254.0725	      0.0000
    254.0763	      0.0000
    254.0801	      0.0000
    254.0840	    674.0266
    254.0878	   2887.1179
    254.0917	   5390.5923
    254.0955	   7575.8413
    254.0994	   6337.5688
    254.1032	   3715.0457
    254.1070	   1254.1595
    254.1109	    640.4779
    254.1148	      0.0000
    254.1187	      0.0000
    254.1225	      0.0000
    254.1263	      0.0000
    260.1331	      0.0000
    260.1371	      0.0000
    260.1410	      0.0000
    260.1450	      0.0000
    260.1490	    442.4545
    260.1530	   1143.2528
    260.1570	   1833.3519
    260.1609	   2019.6942
    260.1649	   1535.2577
    260.1689	    724.8801
    260.1729	      0.0000
    260.1769	      0.0000
    260.1808	      0.0000
    260.1848	      0.0000
    262.0901	      0.0000
    262.0941	      0.0000
    262.0982	      0.0000
    262.1022	      0.0000
    262.1062	    531.0681
    262.1102	   1465.6711
    262.1143	   3648.7710
    262.1183	   5490.5308
    262.1223	   5167.5483
