# ljz_20131022_MR_Chym1_ELUTE.mzML
#
# index: 3642
# id: controllerType=0 controllerNumber=1 scan=9600
# scanNumber: 9600
# massAnalyzerType: quadrupole
# scanEvent: 2
# msLevel: 2
# retentionTime: 2451.9
# filterString: FTMS + p NSI d Full ms2 423.23@hcd28.00 [100.00-885.00]
# mzLow: 99.0036
# mzHigh: 894.012
# basePeakMZ: 132.102
# basePeakIntensity: 434437
# totalIonCurrent: 4.89475e+006
# precursorCount: 1
# precursor 0: 423.233 3.11946e+006
# binary (3830): 
     99.0036	      0.0000
     99.0045	      0.0000
     99.0054	      0.0000
     99.0064	      0.0000
    101.0098	      0.0000
    101.0108	      0.0000
    101.0117	      0.0000
    101.0127	      0.0000
    101.0137	    352.4721
    101.0146	   1107.3546
    101.0156	   3544.6301
    101.0166	   6139.7832
    101.0175	   7707.5386
    101.0185	   5724.4077
    101.0194	   3165.5540
    101.0204	    771.4340
    101.0215	      0.0000
    101.0225	      0.0000
    101.0234	      0.0000
    101.0244	      0.0000
    101.0620	      0.0000
    101.0629	      0.0000
    101.0639	      0.0000
    101.0648	      0.0000
    101.0658	    639.3516
    101.0668	   1903.4775
    101.0677	   4211.5762
    101.0687	  13181.3516
    101.0697	  40726.8750
    101.0706	  74272.3750
    101.0716	 104515.6250
    101.0726	  90380.4141
    101.0735	  54668.1133
    101.0745	  21661.6719
    101.0754	   5012.5488
    101.0764	    849.7411
    101.0772	      0.0000
    101.0782	      0.0000
    101.0792	      0.0000
    101.0801	      0.0000
    102.0501	      0.0000
    102.0510	      0.0000
    102.0520	      0.0000
    102.0530	      0.0000
    102.0540	    928.1365
    102.0549	   1365.2931
    102.0559	   1461.5857
    102.0569	   1157.2379
    102.0579	    645.9581
    102.0589	      0.0000
    102.0598	      0.0000
    102.0608	      0.0000
    102.0618	      0.0000
    102.0686	      0.0000
    102.0696	      0.0000
    102.0706	      0.0000
    102.0716	      0.0000
    102.0725	    843.7854
    102.0735	   1932.1060
    102.0745	   2937.5244
    102.0755	   3133.7410
    102.0765	   2380.9700
    102.0774	   1242.8395
    102.0784	    405.1949
    102.0794	      0.0000
    102.0804	      0.0000
    102.0813	      0.0000
    102.0823	      0.0000
    103.0489	      0.0000
    103.0499	      0.0000
    103.0509	      0.0000
    103.0519	      0.0000
    103.0528	    554.7591
    103.0538	   1230.1956
    103.0548	   1660.5825
    103.0558	   1516.1443
    103.0568	    903.7716
    103.0578	      0.0000
    103.0588	      0.0000
    103.0598	      0.0000
    103.0608	      0.0000
    104.0644	      0.0000
    104.0655	      0.0000
    104.0665	      0.0000
    104.0675	      0.0000
    104.0685	    561.7016
    104.0695	   1463.6976
    104.0705	   2387.7078
    104.0715	   2641.4561
    104.0725	   2012.7202
    104.0735	   1001.5582
    104.0745	    268.0586
    104.0755	      0.0000
    104.0765	      0.0000
    104.0775	      0.0000
    104.0785	      0.0000
    110.0605	      0.0000
    110.0615	      0.0000
    110.0626	      0.0000
    110.0637	      0.0000
    110.0648	    318.9431
    110.0659	   1032.7904
    110.0670	   1510.6577
    110.0681	   4728.4014
    110.0692	  16762.5703
    110.0703	  35350.6250
    110.0714	  55171.3867
    110.0725	  55742.1914
    110.0736	  35976.8438
    110.0747	  17263.8301
    110.0758	   4443.4380
    110.0769	   1191.9951
    110.0779	   1192.0652
    110.0790	   1170.7501
    110.0801	   1391.5466
    110.0812	      0.0000
    110.0823	      0.0000
    110.0834	      0.0000
    110.0845	      0.0000
    110.0856	      0.0000
    112.0698	      0.0000
    112.0710	      0.0000
    112.0721	      0.0000
    112.0732	      0.0000
    112.0744	    902.7238
    112.0755	   1517.2416
    112.0766	   1775.7196
    112.0777	   1533.7186
    112.0789	   1007.0323
    112.0800	      0.0000
    112.0811	      0.0000
    112.0822	      0.0000
    112.0834	      0.0000
    112.0845	      0.0000
    112.0856	    866.5366
    112.0867	   1390.1548
    112.0879	   1490.8243
    112.0890	   1031.3413
    112.0901	    360.0900
    112.0912	      0.0000
    112.0923	      0.0000
    112.0935	      0.0000
    112.0946	      0.0000
    115.0155	      0.0000
    115.0166	      0.0000
    115.0178	      0.0000
    115.0190	      0.0000
    115.0201	    829.7453
    115.0213	   1218.3339
    115.0225	   1329.2228
    115.0236	   1095.7996
    115.0248	    658.6930
    115.0260	      0.0000
    115.0272	      0.0000
    115.0283	      0.0000
    115.0295	      0.0000
    115.0810	      0.0000
    115.0822	      0.0000
    115.0833	      0.0000
    115.0845	      0.0000
    115.0857	    822.8080
    115.0869	   1267.5702
    115.0880	   1382.1310
    115.0892	   1149.0256
    115.0904	    777.8999
    115.0915	      0.0000
    115.0927	      0.0000
    115.0939	      0.0000
    115.0950	      0.0000
    117.0582	      0.0000
    117.0594	      0.0000
    117.0606	      0.0000
    117.0618	      0.0000
    117.0630	    605.1089
    117.0642	   1530.2765
    117.0654	   2510.1104
    117.0666	   2876.9353
    117.0678	   2352.9448
    117.0690	   1342.4076
    117.0702	    521.9741
    117.0714	      0.0000
    117.0726	      0.0000
    117.0738	      0.0000
    117.0750	      0.0000
    120.0704	      0.0000
    120.0716	      0.0000
    120.0729	      0.0000
    120.0741	      0.0000
    120.0754	    858.2037
    120.0766	   2840.5088
    120.0778	  10467.2871
    120.0791	  25776.4473
    120.0803	  42394.5039
    120.0816	  49241.9375
    120.0828	  34969.5234
    120.0841	  18985.3105
    120.0853	   5536.7217
    120.0866	   1034.2970
    120.0878	      0.0000
    120.0891	      0.0000
    120.0903	      0.0000
    120.0916	      0.0000
    121.0763	      0.0000
    121.0775	      0.0000
    121.0788	      0.0000
    121.0801	      0.0000
    121.0813	    556.2535
    121.0826	   1365.0527
    121.0838	   2038.8873
    121.0851	   2045.6569
    121.0864	   1374.4369
    121.0876	    570.2901
    121.0889	      0.0000
    121.0902	      0.0000
    121.0914	      0.0000
    121.0927	      0.0000
    122.0731	      0.0000
    122.0744	      0.0000
    122.0757	      0.0000
    122.0770	      0.0000
    122.0782	    900.5379
    122.0795	   1920.7920
    122.0808	   2871.9253
    122.0821	   3110.6189
    122.0834	   2471.0046
    122.0846	   1415.5760
    122.0859	    552.2137
    122.0871	      0.0000
    122.0884	      0.0000
    122.0897	      0.0000
    122.0910	      0.0000
    128.0981	      0.0000
    128.0995	      0.0000
    128.1009	      0.0000
    128.1022	      0.0000
    128.1036	    324.6119
    128.1050	   1077.3480
    128.1064	   1990.8516
    128.1077	   2424.3826
    128.1091	   2025.0110
    128.1105	   1096.0919
    128.1119	    295.9099
    128.1133	      0.0000
    128.1147	      0.0000
    128.1161	      0.0000
    128.1175	      0.0000
    129.0538	      0.0000
    129.0552	      0.0000
    129.0566	      0.0000
    129.0580	      0.0000
    129.0594	    806.5444
    129.0608	   2575.7378
    129.0621	   9651.2764
    129.0635	  30481.2344
    129.0649	  54878.5391
    129.0663	  76290.3203
    129.0677	  65003.7734
    129.0691	  39269.1055
    129.0705	  15500.2227
    129.0719	   3804.5935
    129.0733	    761.0673
    129.0747	      0.0000
    129.0761	      0.0000
    129.0775	      0.0000
    129.0789	      0.0000
    129.0914	      0.0000
    129.0928	      0.0000
    129.0942	      0.0000
    129.0956	      0.0000
    129.0970	    587.8701
    129.0984	   1835.4163
    129.0998	   5582.1768
    129.1012	  10309.6787
    129.1025	  14965.4600
    129.1039	  13751.0977
    129.1053	   8470.0928
    129.1067	   3619.6899
    129.1081	    605.4948
    129.1093	      0.0000
    129.1107	      0.0000
    129.1121	      0.0000
    129.1135	      0.0000
    130.0411	      0.0000
    130.0425	      0.0000
    130.0439	      0.0000
    130.0453	      0.0000
    130.0467	    984.8765
    130.0481	   1913.5054
    130.0495	   2635.6604
    130.0509	   2683.2021
    130.0524	   2001.8053
    130.0538	   1045.4475
    130.0552	    401.3707
    130.0566	      0.0000
    130.0580	      0.0000
    130.0594	      0.0000
    130.0608	      0.0000
    130.0622	      0.0000
    130.0636	      0.0000
    130.0650	    353.2746
    130.0664	   1037.1830
    130.0678	   1721.8224
    130.0692	   1898.1532
    130.0706	   1427.2692
    130.0721	    680.9847
    130.0734	      0.0000
    130.0748	      0.0000
    130.0763	      0.0000
    130.0777	      0.0000
    132.0733	      0.0000
    132.0747	      0.0000
    132.0761	      0.0000
    132.0776	      0.0000
    132.0790	      0.0000
    132.0805	      0.0000
    132.0819	      0.0000
    132.0833	      0.0000
    132.0848	      0.0000
    132.0863	      0.0000
    132.0877	      0.0000
    132.0892	      0.0000
    132.0906	    274.1770
    132.0921	   3393.7993
    132.0935	   7438.1895
    132.0949	   9488.9307
    132.0964	  15700.5010
    132.0978	  50369.0977
    132.0993	 162668.0313
    132.1007	 301460.9375
    132.1021	 430254.1250
    132.1036	 379070.5000
    132.1050	 231831.7344
    132.1065	  96224.3828
    132.1079	  25329.4980
    132.1093	   7104.1743
    132.1108	   5606.4399
    132.1122	   1508.6375
    132.1137	      0.0000
    132.1150	      0.0000
    132.1165	      0.0000
    132.1179	      0.0000
    132.1193	      0.0000
    132.1323	      0.0000
    132.1338	      0.0000
    132.1352	      0.0000
    132.1366	      0.0000
    132.1381	      0.0000
    132.1395	      0.0000
    132.1410	      0.0000
    132.1424	      0.0000
    132.1438	      0.0000
    132.1453	      0.0000
    132.1467	      0.0000
    132.1482	      0.0000
    132.1496	      0.0000
    132.1510	      0.0000
    132.1525	      0.0000
    133.0519	      0.0000
    133.0534	      0.0000
    133.0548	      0.0000
    133.0563	      0.0000
    133.0577	    711.5173
    133.0592	   1357.0763
    133.0607	   1745.1591
    133.0621	   1568.1104
    133.0636	    938.5171
    133.0652	      0.0000
    133.0667	      0.0000
    133.0681	      0.0000
    133.0696	      0.0000
    133.0943	      0.0000
    133.0958	      0.0000
    133.0973	      0.0000
    133.0987	      0.0000
    133.1002	    879.1072
    133.1016	   3193.9351
    133.1031	   9496.8799
    133.1045	  16507.5703
    133.1060	  21834.5664
    133.1075	  17409.9824
    133.1089	  10187.2900
    133.1104	   3384.3691
    133.1118	    511.1965
    133.1131	      0.0000
    133.1145	      0.0000
    133.1160	      0.0000
    133.1174	      0.0000
    134.9841	      0.0000
    134.9856	      0.0000
    134.9871	      0.0000
    134.9886	      0.0000
    134.9901	    743.0886
    134.9916	   1482.0381
    134.9930	   1930.5862
    134.9945	   1751.1499
    134.9960	   1069.6378
    134.9975	    358.2834
    134.9990	      0.0000
    135.0005	      0.0000
    135.0020	      0.0000
    135.0034	      0.0000
    136.0661	      0.0000
    136.0676	      0.0000
    136.0691	      0.0000
    136.0706	      0.0000
    136.0721	    795.9781
    136.0736	   1851.3187
    136.0751	   2792.7888
    136.0766	   2941.6523
    136.0781	   2178.4849
    136.0796	   1082.8923
    136.0811	    398.2778
    136.0826	      0.0000
    136.0841	      0.0000
    136.0856	      0.0000
    136.0871	      0.0000
    141.0544	      0.0000
    141.0560	      0.0000
    141.0576	      0.0000
    141.0592	      0.0000
    141.0608	    608.7354
    141.0624	   2055.6125
    141.0640	   4605.8125
    141.0655	   7374.7793
    141.0671	   7685.4219
    141.0687	   4937.1650
    141.0703	   2328.8835
    141.0719	    351.2870
    141.0735	      0.0000
    141.0751	      0.0000
    141.0767	      0.0000
    141.0783	      0.0000
    141.0926	      0.0000
    141.0942	      0.0000
    141.0957	      0.0000
    141.0973	      0.0000
    141.0989	    468.0375
    141.1005	   1150.4763
    141.1021	   1710.8076
    141.1037	   1733.1898
    141.1053	   1185.9606
    141.1069	    489.3828
    141.1085	      0.0000
    141.1101	      0.0000
    141.1117	      0.0000
    141.1133	      0.0000
    145.0513	      0.0000
    145.0529	      0.0000
    145.0546	      0.0000
    145.0563	      0.0000
    145.0579	    680.3426
    145.0596	   1293.2972
    145.0612	   1569.9503
    145.0629	   1321.8530
    145.0645	    762.3204
    145.0662	      0.0000
    145.0678	      0.0000
    145.0695	      0.0000
    145.0712	      0.0000
    146.0825	      0.0000
    146.0841	      0.0000
    146.0858	      0.0000
    146.0875	      0.0000
    146.0892	    674.0186
    146.0908	   1397.6827
    146.0925	   1947.7227
    146.0942	   1952.8312
    146.0959	   1416.7085
    146.0975	    700.2103
    146.0992	      0.0000
    146.1009	      0.0000
    146.1026	      0.0000
    146.1042	      0.0000
    147.0655	      0.0000
    147.0672	      0.0000
    147.0688	      0.0000
    147.0705	      0.0000
    147.0722	    350.3492
    147.0739	    999.4896
    147.0756	   1718.8381
    147.0773	   2035.3668
    147.0790	   1711.7888
    147.0807	    991.7897
    147.0824	    356.3264
    147.0841	      0.0000
    147.0858	      0.0000
    147.0875	      0.0000
    147.0892	      0.0000
    155.1051	      0.0000
    155.1069	      0.0000
    155.1088	      0.0000
    155.1106	      0.0000
    155.1124	    790.1951
    155.1143	   2506.0127
    155.1161	   4544.5972
    155.1179	   6101.9033
    155.1198	   4835.6230
    155.1216	   2747.2246
    155.1234	    969.8585
    155.1253	      0.0000
    155.1272	      0.0000
    155.1290	      0.0000
    155.1308	      0.0000
    156.0661	      0.0000
    156.0679	      0.0000
    156.0698	      0.0000
    156.0716	      0.0000
    156.0735	    936.3120
    156.0753	   1620.4089
    156.0772	   1877.6458
    156.0790	   1493.7823
    156.0809	    763.1105
    156.0828	      0.0000
    156.0846	      0.0000
    156.0865	      0.0000
    156.0883	      0.0000
    158.0696	      0.0000
    158.0715	      0.0000
    158.0733	      0.0000
    158.0752	      0.0000
    158.0771	    186.2467
    158.0790	   1210.9052
    158.0809	   1475.6075
    158.0828	   2016.0656
    158.0847	   2322.3508
    158.0865	   6423.1196
    158.0884	  21815.3574
    158.0903	  43758.3398
    158.0922	  66353.4219
    158.0941	  64067.3438
    158.0960	  40634.2695
    158.0979	  18738.0918
    158.0997	   4992.4316
    158.1016	   1405.6501
    158.1035	   1041.3132
    158.1054	    410.9623
    158.1072	      0.0000
    158.1091	      0.0000
    158.1110	      0.0000
    158.1129	      0.0000
    159.0657	      0.0000
    159.0676	      0.0000
    159.0695	      0.0000
    159.0714	      0.0000
    159.0733	    708.5837
    159.0752	   1371.0468
    159.0771	   1815.8597
    159.0791	   1758.5179
    159.0810	   1257.7094
    159.0829	    662.9321
    159.0848	      0.0000
    159.0867	      0.0000
    159.0886	      0.0000
    159.0905	    857.2985
    159.0924	   1556.1798
    159.0943	   2279.1133
    159.0962	   2605.7551
    159.0981	   2281.7854
    159.1000	   1494.0901
    159.1019	    704.1199
    159.1038	      0.0000
    159.1057	      0.0000
    159.1076	      0.0000
    159.1095	      0.0000
    166.0487	      0.0000
    166.0507	      0.0000
    166.0527	      0.0000
    166.0548	      0.0000
    166.0568	    493.0143
    166.0588	   1323.0604
    166.0609	   2042.7218
    166.0629	   2062.7644
    166.0649	   1389.4215
    166.0670	    580.0239
    166.0690	      0.0000
    166.0710	      0.0000
    166.0730	      0.0000
    166.0751	      0.0000
    166.0771	      0.0000
    166.0791	    357.8109
    166.0812	   1077.3916
    166.0832	   3564.1733
    166.0852	   6028.6016
    166.0873	   7008.8203
    166.0893	   4688.6104
    166.0913	   2166.8325
    166.0933	     38.0992
    166.0954	      0.0000
    166.0974	      0.0000
    166.0994	      0.0000
    166.1015	      0.0000
    167.0047	      0.0000
    167.0067	      0.0000
    167.0088	      0.0000
    167.0108	      0.0000
    167.0129	    725.9085
    167.0149	   2063.8806
    167.0170	   4446.3916
    167.0190	   6997.1436
    167.0211	   6848.9229
    167.0231	   4248.7373
    167.0251	   1838.7526
    167.0272	    708.0991
    167.0292	      0.0000
    167.0313	      0.0000
    167.0333	      0.0000
    167.0354	      0.0000
    169.0458	      0.0000
    169.0479	      0.0000
    169.0499	      0.0000
    169.0520	      0.0000
    169.0541	    393.9188
    169.0562	   1225.6726
    169.0583	   2355.5010
    169.0604	   3087.5286
    169.0624	   2885.5896
    169.0645	   1912.0728
    169.0666	    847.7213
    169.0690	      0.0000
    169.0711	      0.0000
    169.0732	      0.0000
    169.0752	      0.0000
    169.0815	      0.0000
    169.0836	      0.0000
    169.0857	      0.0000
    169.0878	      0.0000
    169.0898	    613.8375
    169.0919	   1125.4640
    169.0940	   3809.0635
    169.0961	   6971.4561
    169.0982	   9443.7031
    169.1003	   7557.8418
    169.1024	   4314.6523
    169.1044	   1241.7687
    169.1065	      0.0000
    169.1083	      0.0000
    169.1104	      0.0000
    169.1125	      0.0000
    169.1146	      0.0000
    171.1012	      0.0000
    171.1033	      0.0000
    171.1054	      0.0000
    171.1075	      0.0000
    171.1097	    632.2796
    171.1118	   1280.6890
    171.1139	   1532.0505
    171.1160	   1177.5275
    171.1181	    520.4084
    171.1203	      0.0000
    171.1225	      0.0000
    171.1246	      0.0000
    171.1267	      0.0000
    173.1144	      0.0000
    173.1165	      0.0000
    173.1187	      0.0000
    173.1209	      0.0000
    173.1230	    991.7247
    173.1252	   2072.0500
    173.1274	   4040.3716
    173.1295	   4880.8428
    173.1317	   2609.5273
    173.1338	   1471.2626
    173.1360	    558.4431
    173.1380	      0.0000
    173.1402	      0.0000
    173.1423	      0.0000
    173.1445	      0.0000
    177.5871	      0.0000
    177.5894	      0.0000
    177.5916	      0.0000
    177.5938	      0.0000
    177.5961	    315.5713
    177.5983	   1418.1653
    177.6006	   2023.9819
    177.6028	   7119.1226
    177.6051	  26129.9375
    177.6073	  59557.1016
    177.6096	  95671.5000
    177.6118	 104659.9375
    177.6141	  71539.3984
    177.6163	  37570.4492
    177.6185	  11231.8438
    177.6208	   3109.2898
    177.6230	   1621.2711
    177.6253	    909.9833
    177.6282	      0.0000
    177.6305	      0.0000
    177.6327	      0.0000
    177.6350	      0.0000
    178.0940	      0.0000
    178.0962	      0.0000
    178.0985	      0.0000
    178.1008	      0.0000
    178.1030	    479.4329
    178.1053	   2315.0950
    178.1075	   6559.5972
    178.1098	  12178.5420
    178.1120	  17921.0020
    178.1143	  17318.4883
    178.1165	  11073.0127
    178.1188	   5181.6851
    178.1210	   1022.2946
    178.1227	      0.0000
    178.1249	      0.0000
    178.1272	      0.0000
    178.1294	      0.0000
    179.0781	      0.0000
    179.0804	      0.0000
    179.0826	      0.0000
    179.0849	      0.0000
    179.0872	    435.3181
    179.0895	   1225.7144
    179.0917	   2078.8811
    179.0940	   2383.0669
    179.0963	   1899.9163
    179.0985	   1002.2449
    179.1008	      0.0000
    179.1031	      0.0000
    179.1054	      0.0000
    179.1076	      0.0000
    181.0029	      0.0000
    181.0052	      0.0000
    181.0075	      0.0000
    181.0098	      0.0000
    181.0121	    794.1082
    181.0144	   1304.1702
    181.0167	   1485.8966
    181.0190	   1212.5272
    181.0214	    669.1729
    181.0237	      0.0000
    181.0261	      0.0000
    181.0284	      0.0000
    181.0307	      0.0000
    182.1145	      0.0000
    182.1168	      0.0000
    182.1191	      0.0000
    182.1215	      0.0000
    182.1238	    535.2103
    182.1261	   1395.4417
    182.1285	   2094.0259
    182.1308	   2117.9006
    182.1331	   1476.5345
    182.1355	    659.8953
    182.1378	      0.0000
    182.1401	      0.0000
    182.1424	      0.0000
    182.1448	      0.0000
    183.0623	      0.0000
    183.0646	      0.0000
    183.0670	      0.0000
    183.0693	      0.0000
