# ljz_20131022_MR_Chym1_ELUTE.mzML
#
# index: 4336
# id: controllerType=0 controllerNumber=1 scan=10495
# scanNumber: 10495
# massAnalyzerType: quadrupole
# scanEvent: 2
# msLevel: 2
# retentionTime: 2609.91
# filterString: FTMS + p NSI d Full ms2 490.87@hcd28.00 [100.00-1525.00]
# mzLow: 99.0036
# mzHigh: 1540.58
# basePeakMZ: 173.129
# basePeakIntensity: 108390
# totalIonCurrent: 686426
# precursorCount: 1
# precursor 0: 490.54 902189
# binary (1644): 
     99.0036	      0.0000
     99.0045	      0.0000
     99.0054	      0.0000
     99.0064	      0.0000
    105.6760	      0.0000
    105.6770	      0.0000
    105.6780	      0.0000
    105.6791	      0.0000
    105.6801	    459.2202
    105.6811	    818.5287
    105.6822	    978.2684
    105.6832	    812.2756
    105.6842	    428.8189
    105.6855	      0.0000
    105.6866	      0.0000
    105.6876	      0.0000
    105.6886	      0.0000
    110.0586	      0.0000
    110.0597	      0.0000
    110.0608	      0.0000
    110.0619	      0.0000
    110.0630	     13.5357
    110.0641	    940.5214
    110.0652	   1043.5658
    110.0663	   1875.4150
    110.0673	   3008.6499
    110.0684	   7478.1406
    110.0695	  22063.1230
    110.0706	  41165.5859
    110.0717	  59667.1797
    110.0728	  53660.7461
    110.0739	  32637.7617
    110.0750	  13101.8896
    110.0761	   2275.2634
    110.0772	    108.4733
    110.0780	      0.0000
    110.0791	      0.0000
    110.0802	      0.0000
    110.0813	      0.0000
    110.0823	      0.0000
    110.0834	      0.0000
    110.0845	      0.0000
    110.0856	      0.0000
    111.0672	      0.0000
    111.0683	      0.0000
    111.0695	      0.0000
    111.0706	      0.0000
    111.0717	    179.6376
    111.0728	    777.9794
    111.0739	   1561.4127
    111.0750	   1981.3860
    111.0761	   1704.8115
    111.0772	    971.7823
    111.0783	    346.3721
    111.0796	      0.0000
    111.0807	      0.0000
    111.0818	      0.0000
    111.0829	      0.0000
    120.0707	      0.0000
    120.0719	      0.0000
    120.0732	      0.0000
    120.0744	      0.0000
    120.0756	    463.5401
    120.0769	   1504.1617
    120.0781	   4867.8008
    120.0794	  10466.7734
    120.0806	  16582.6758
    120.0819	  17721.5801
    120.0831	  11783.9541
    120.0844	   5883.2441
    120.0856	   1269.0599
    120.0869	      0.0000
    120.0879	      0.0000
    120.0891	      0.0000
    120.0904	      0.0000
    120.0916	      0.0000
    121.0763	      0.0000
    121.0776	      0.0000
    121.0788	      0.0000
    121.0801	      0.0000
    121.0814	    324.6422
    121.0826	    930.4567
    121.0839	   1581.5616
    121.0852	   1812.0016
    121.0864	   1443.8563
    121.0877	    770.4068
    121.0889	      0.0000
    121.0902	      0.0000
    121.0914	      0.0000
    121.0927	      0.0000
    127.0512	      0.0000
    127.0526	      0.0000
    127.0539	      0.0000
    127.0553	      0.0000
    127.0566	    463.0953
    127.0580	    949.0087
    127.0594	   1291.6333
    127.0607	   1197.1007
    127.0621	    721.8325
    127.0634	      0.0000
    127.0648	      0.0000
    127.0661	      0.0000
    127.0675	      0.0000
    128.0982	      0.0000
    128.0995	      0.0000
    128.1009	      0.0000
    128.1023	      0.0000
    128.1037	    358.5261
    128.1050	   1055.9672
    128.1064	   1745.3577
    128.1078	   1945.2692
    128.1092	   1523.4519
    128.1105	    808.6487
    128.1119	    248.3362
    128.1135	      0.0000
    128.1149	      0.0000
    128.1163	      0.0000
    128.1177	      0.0000
    129.0902	      0.0000
    129.0915	      0.0000
    129.0929	      0.0000
    129.0943	      0.0000
    129.0957	    448.4416
    129.0971	   1195.9840
    129.0985	   3749.4468
    129.0999	  11077.0420
    129.1013	  19521.8301
    129.1027	  26544.5859
    129.1041	  22010.3027
    129.1055	  13019.4053
    129.1069	   4647.8179
    129.1082	    670.5499
    129.1095	      0.0000
    129.1109	      0.0000
    129.1123	      0.0000
    129.1137	      0.0000
    132.0893	      0.0000
    132.0907	      0.0000
    132.0922	      0.0000
    132.0936	      0.0000
    132.0950	    677.9373
    132.0965	   1579.1708
    132.0979	   5578.2202
    132.0994	  17690.4414
    132.1008	  31818.7363
    132.1022	  43765.6328
    132.1037	  36532.2969
    132.1051	  21851.2461
    132.1066	   8203.9053
    132.1080	   1843.8785
    132.1094	    319.9553
    132.1108	      0.0000
    132.1122	      0.0000
    132.1136	      0.0000
    132.1151	      0.0000
    132.1165	      0.0000
    132.1180	      0.0000
    132.1194	    535.5335
    132.1208	   1076.8198
    132.1223	   1457.4243
    132.1237	   1333.0223
    132.1252	    804.9886
    132.1266	      0.0000
    132.1280	      0.0000
    132.1295	      0.0000
    132.1309	      0.0000
    133.0767	      0.0000
    133.0782	      0.0000
    133.0796	      0.0000
    133.0811	      0.0000
    133.0826	    796.2673
    133.0840	   1787.6528
    133.0855	   3949.9399
    133.0869	   3966.9077
    133.0884	   2425.0896
    133.0898	    994.1856
    133.0913	    566.8019
    133.0928	      0.0000
    133.0942	      0.0000
    133.0957	      0.0000
    133.0971	      0.0000
    133.0986	      0.0000
    133.1000	      0.0000
    133.1015	    328.1968
    133.1029	   1072.8822
    133.1044	   2041.6417
    133.1059	   2570.0161
    133.1073	   2255.7239
    133.1088	   1365.2299
    133.1102	    532.1324
    133.1117	      0.0000
    133.1131	      0.0000
    133.1146	      0.0000
    133.1160	      0.0000
    134.9842	      0.0000
    134.9857	      0.0000
    134.9872	      0.0000
    134.9886	      0.0000
    134.9901	    492.4444
    134.9916	   1161.9768
    134.9931	   1675.3397
    134.9946	   1650.4264
    134.9961	   1103.5695
    134.9976	    455.8714
    134.9990	      0.0000
    135.0005	      0.0000
    135.0020	      0.0000
    135.0035	      0.0000
    136.0662	      0.0000
    136.0677	      0.0000
    136.0692	      0.0000
    136.0707	      0.0000
    136.0722	    366.5797
    136.0737	    874.2655
    136.0752	   1274.1945
    136.0767	   1313.5342
    136.0782	    978.6279
    136.0797	    507.7557
    136.0812	      0.0000
    136.0827	      0.0000
    136.0842	      0.0000
    136.0857	      0.0000
    138.0554	      0.0000
    138.0569	      0.0000
    138.0585	      0.0000
    138.0600	      0.0000
    138.0615	    318.8625
    138.0631	    894.6626
    138.0646	   1665.0323
    138.0662	   2107.5913
    138.0677	   1880.8702
    138.0692	   1149.9991
    138.0708	    432.4492
    138.0724	      0.0000
    138.0739	      0.0000
    138.0754	      0.0000
    138.0770	      0.0000
    157.1219	      0.0000
    157.1238	      0.0000
    157.1256	      0.0000
    157.1275	      0.0000
    157.1294	    559.6307
    157.1312	    982.7445
    157.1331	   1159.3308
    157.1350	    956.2498
    157.1368	    518.6658
    157.1387	      0.0000
    157.1406	      0.0000
    157.1424	      0.0000
    157.1443	      0.0000
    159.0658	      0.0000
    159.0677	      0.0000
    159.0696	      0.0000
    159.0715	      0.0000
    159.0734	    746.4672
    159.0753	   1189.7712
    159.0772	   1330.9685
    159.0791	   1058.8223
    159.0810	    576.6462
    159.0829	      0.0000
    159.0848	      0.0000
    159.0867	      0.0000
    159.0886	      0.0000
    159.1020	      0.0000
    159.1039	      0.0000
    159.1058	      0.0000
    159.1077	      0.0000
    159.1096	    621.4111
    159.1115	   1137.5542
    159.1134	   1359.5421
    159.1153	   1104.8171
    159.1172	    573.1686
    159.1191	      0.0000
    159.1210	      0.0000
    159.1229	      0.0000
    159.1249	      0.0000
    164.1054	      0.0000
    164.1074	      0.0000
    164.1094	      0.0000
    164.1114	      0.0000
    164.1134	    753.9591
    164.1154	   1342.5378
    164.1174	   1691.5165
    164.1194	   1553.3690
    164.1214	   1023.9496
    164.1234	    446.0719
    164.1252	      0.0000
    164.1272	      0.0000
    164.1292	      0.0000
    164.1312	      0.0000
    166.0710	      0.0000
    166.0730	      0.0000
    166.0750	      0.0000
    166.0771	      0.0000
    166.0791	    612.0906
    166.0811	   2561.4292
    166.0831	   5888.9932
    166.0852	   9414.7930
    166.0872	   9941.2002
    166.0892	   6556.1934
    166.0913	   3206.9075
    166.0933	    811.7062
    166.0954	      0.0000
    166.0975	      0.0000
    166.0995	      0.0000
    166.1015	      0.0000
    167.0764	      0.0000
    167.0785	      0.0000
    167.0805	      0.0000
    167.0826	      0.0000
    167.0846	    362.2915
    167.0867	    850.0829
    167.0887	   1364.4873
    167.0908	   1583.7115
    167.0928	   1361.0040
    167.0949	    839.5784
    167.0969	    318.0559
    167.0989	      0.0000
    167.1010	      0.0000
    167.1030	      0.0000
    167.1051	      0.0000
    170.1036	      0.0000
    170.1057	      0.0000
    170.1078	      0.0000
    170.1099	      0.0000
    170.1120	    700.9436
    170.1141	   1578.6658
    170.1162	   2989.2495
    170.1183	   3894.7349
    170.1204	   2173.6152
    170.1225	   1145.6619
    170.1247	    376.7402
    170.1270	      0.0000
    170.1291	      0.0000
    170.1312	      0.0000
    170.1333	      0.0000
    173.1060	      0.0000
    173.1082	      0.0000
    173.1103	      0.0000
    173.1125	      0.0000
    173.1146	    411.3582
    173.1168	   2170.8171
    173.1190	   3228.6035
    173.1211	   8340.6934
    173.1233	  27144.8809
    173.1254	  60914.4336
    173.1276	  97610.4141
    173.1298	 106522.9609
    173.1319	  72199.7969
    173.1341	  37130.2852
    173.1362	   9947.9502
    173.1384	   2186.3970
    173.1406	   1659.8676
    173.1427	   1649.5079
    173.1449	    882.5588
    173.1470	      0.0000
    173.1490	      0.0000
    173.1512	      0.0000
    173.1534	      0.0000
    173.1555	      0.0000
    174.1170	      0.0000
    174.1191	      0.0000
    174.1213	      0.0000
    174.1235	      0.0000
    174.1257	    356.0883
    174.1279	    912.8096
    174.1300	   1605.4967
    174.1322	   1964.2559
    174.1344	   1713.7334
    174.1366	   1035.0941
    174.1387	    382.4840
    174.1409	      0.0000
    174.1431	      0.0000
    174.1453	      0.0000
    174.1474	      0.0000
    177.0878	      0.0000
    177.0900	      0.0000
    177.0922	      0.0000
    177.0945	      0.0000
    177.0967	    425.8978
    177.0989	   1066.6315
    177.1012	   1656.9058
    177.1034	   1775.0642
    177.1057	   1333.3755
    177.1079	    664.9710
    177.1101	      0.0000
    177.1123	      0.0000
    177.1146	      0.0000
    177.1168	      0.0000
    181.0931	      0.0000
    181.0954	      0.0000
    181.0977	      0.0000
    181.1000	      0.0000
    181.1023	    192.9714
    181.1046	    807.5184
    181.1069	   1608.4758
    181.1093	   1995.4912
    181.1116	   1668.0135
    181.1139	    915.4252
    181.1162	    279.9735
    181.1186	      0.0000
    181.1209	      0.0000
    181.1232	      0.0000
    181.1255	      0.0000
    183.0600	      0.0000
    183.0624	      0.0000
    183.0647	      0.0000
    183.0671	      0.0000
    183.0694	    474.1219
    183.0718	   1108.3120
    183.0741	   1704.3652
    183.0765	   1866.6122
    183.0788	   1456.0171
    183.0812	    769.9451
    183.0835	      0.0000
    183.0858	      0.0000
    183.0882	      0.0000
    183.0905	      0.0000
    185.1498	      0.0000
    185.1522	      0.0000
    185.1546	      0.0000
    185.1570	      0.0000
    185.1594	    649.0759
    185.1618	   1065.1870
    185.1642	   1223.1438
    185.1666	    999.9451
    185.1690	    545.3948
    185.1713	      0.0000
    185.1737	      0.0000
    185.1761	      0.0000
    185.1785	      0.0000
    187.0547	      0.0000
    187.0571	      0.0000
    187.0595	      0.0000
    187.0619	      0.0000
    187.0644	    632.6842
    187.0668	   1389.9924
    187.0692	   2150.2869
    187.0716	   2392.2734
    187.0741	   1912.3998
    187.0765	   1054.5341
    187.0789	    375.0513
    187.0814	      0.0000
    187.0838	      0.0000
    187.0863	      0.0000
    187.0887	      0.0000
    193.0812	      0.0000
    193.0837	      0.0000
    193.0863	      0.0000
    193.0888	      0.0000
    193.0914	    419.1916
    193.0939	   1002.6359
    193.0965	   1458.4877
    193.0990	   1452.7419
    193.1016	    991.4790
    193.1041	    430.3685
    193.1066	      0.0000
    193.1092	      0.0000
    193.1117	      0.0000
    193.1143	      0.0000
    197.0896	      0.0000
    197.0923	      0.0000
    197.0949	      0.0000
    197.0975	      0.0000
    197.1001	    691.2122
    197.1028	   1135.4868
    197.1054	   1202.6365
    197.1080	    874.9854
    197.1106	    426.6716
    197.1132	      0.0000
    197.1159	      0.0000
    197.1185	      0.0000
    197.1211	      0.0000
    199.0729	      0.0000
    199.0755	      0.0000
    199.0782	      0.0000
    199.0809	      0.0000
    199.0835	    341.7776
    199.0862	    987.1511
    199.0889	   1642.8030
    199.0915	   1830.4290
    199.0942	   1390.2800
    199.0968	    691.6475
    199.0995	      0.0000
    199.1022	      0.0000
    199.1048	      0.0000
    199.1075	      0.0000
    200.0838	      0.0000
    200.0865	      0.0000
    200.0892	      0.0000
    200.0918	      0.0000
    200.0945	    555.6029
    200.0972	   1445.4818
    200.0999	   3402.7065
    200.1026	   4719.0469
    200.1053	   3983.7415
    200.1079	   2331.1255
    200.1106	    827.9502
    200.1133	    259.5751
    200.1160	      0.0000
    200.1187	      0.0000
    200.1214	      0.0000
    200.1241	      0.0000
    200.1267	      0.0000
    200.1294	      0.0000
    200.1321	    668.1691
    200.1348	   1497.3022
    200.1375	   2380.1042
    200.1402	   4207.0186
    200.1429	   3132.4629
    200.1455	   1354.5387
    200.1482	    528.6644
    200.1509	      0.0000
    200.1536	      0.0000
    200.1563	      0.0000
    200.1590	      0.0000
    201.0889	      0.0000
    201.0916	      0.0000
    201.0943	      0.0000
    201.0970	      0.0000
    201.0997	    478.3181
    201.1024	   1171.7365
    201.1051	   1890.9338
    201.1078	   1894.6414
    201.1105	   1111.4347
    201.1132	    846.4707
    201.1159	   2336.9866
    201.1186	   6825.4453
    201.1213	  11529.4316
    201.1240	  14456.3252
    201.1267	  10694.0361
    201.1294	   5889.2314
    201.1321	   1492.1045
    201.1348	     89.6788
    201.1377	      0.0000
    201.1404	      0.0000
    201.1431	      0.0000
    201.1458	      0.0000
    207.0979	      0.0000
    207.1008	      0.0000
    207.1036	      0.0000
    207.1064	      0.0000
    207.1093	    781.4193
    207.1121	   1028.5835
    207.1149	   1075.3729
    207.1177	    863.9093
    207.1206	    493.9572
    207.1234	      0.0000
    207.1262	      0.0000
    207.1290	      0.0000
    207.1319	      0.0000
    210.0898	      0.0000
    210.0927	      0.0000
    210.0956	      0.0000
    210.0985	      0.0000
    210.1014	    727.8503
    210.1042	   1511.1593
    210.1071	   2291.8127
    210.1100	   2542.7832
    210.1129	   2061.6528
    210.1158	   1168.1046
    210.1187	    399.2655
    210.1216	      0.0000
    210.1245	      0.0000
    210.1273	      0.0000
    210.1302	      0.0000
    212.1059	      0.0000
    212.1088	      0.0000
    212.1117	      0.0000
    212.1147	      0.0000
    212.1176	    513.6283
    212.1205	   1274.7631
    212.1235	   2027.8446
    212.1264	   2261.3499
    212.1293	   1792.5365
    212.1322	    981.9032
    212.1352	    395.3749
    212.1382	      0.0000
    212.1411	      0.0000
    212.1440	      0.0000
    212.1469	      0.0000
    223.0834	      0.0000
    223.0866	      0.0000
    223.0897	      0.0000
    223.0929	      0.0000
    223.0960	    392.3882
    223.0992	    974.4498
    223.1024	   1702.8983
    223.1055	   2192.2759
    223.1087	   2105.7883
    223.1118	   1483.0769
    223.1150	    726.3602
    223.1185	      0.0000
    223.1217	      0.0000
    223.1248	      0.0000
    223.1280	      0.0000
    225.0722	      0.0000
    225.0754	      0.0000
    225.0786	      0.0000
    225.0818	      0.0000
    225.0851	    538.8438
    225.0883	    936.8144
    225.0915	   3214.7522
    225.0947	   6291.1235
    225.0979	   9237.3018
    225.1011	   8448.9297
    225.1043	   5178.4194
    225.1075	   2140.4927
    225.1107	    398.8399
    225.1136	      0.0000
    225.1168	      0.0000
    225.1200	      0.0000
    225.1232	      0.0000
    229.0606	      0.0000
    229.0638	      0.0000
    229.0671	      0.0000
    229.0704	      0.0000
    229.0737	    449.4571
    229.0770	   1086.3586
    229.0803	   1557.4514
    229.0836	   1415.0082
    229.0869	   1121.0181
    229.0902	   1006.0175
    229.0937	   3097.4380
    229.0969	   6135.3838
    229.1002	   9016.5732
    229.1035	   7884.4092
    229.1068	   4655.7407
    229.1101	   1656.3739
    229.1134	    599.0405
    229.1165	    862.8671
    229.1198	   1056.6108
    229.1230	    852.1911
    229.1263	    400.0623
    229.1296	      0.0000
    229.1329	      0.0000
    229.1362	      0.0000
    229.1395	      0.0000
    231.1464	      0.0000
    231.1497	      0.0000
    231.1530	      0.0000
    231.1564	      0.0000
    231.1597	    542.3725
    231.1630	   1604.8828
    231.1664	   3462.9048
    231.1697	   5346.0747
    231.1730	   4989.7910
    231.1764	   2987.1433
    231.1797	   1166.4506
    231.1830	    479.0450
    231.1863	      0.0000
    231.1897	      0.0000
    231.1930	      0.0000
    231.1963	      0.0000
    239.1274	      0.0000
    239.1309	      0.0000
    239.1344	      0.0000
    239.1379	      0.0000
    239.1414	    512.3302
    239.1449	   1197.2113
    239.1484	   1790.9362
    239.1519	   1863.4762
    239.1554	   1353.4220
    239.1589	    647.3659
    239.1631	      0.0000
    239.1667	      0.0000
    239.1702	      0.0000
    239.1737	      0.0000
    245.1569	      0.0000
    245.1605	      0.0000
    245.1642	      0.0000
    245.1678	      0.0000
    245.1715	    328.3445
    245.1751	   1278.0499
    245.1788	   4545.6147
    245.1824	   8594.8818
    245.1860	  12343.0273
    245.1897	  10706.8945
    245.1933	   6349.2788
    245.1970	   2305.2866
    245.2006	    272.0307
    245.2036	      0.0000
    245.2073	      0.0000
    245.2109	      0.0000
    245.2146	      0.0000
    246.1680	      0.0000
    246.1716	      0.0000
    246.1753	      0.0000
    246.1790	      0.0000
    246.1826	    704.9698
    246.1863	   1126.8495
    246.1900	   1212.7507
    246.1936	    883.6409
    246.1973	    383.9061
    246.2009	      0.0000
    246.2046	      0.0000
    246.2083	      0.0000
    246.2119	      0.0000
    252.0601	      0.0000
    252.0639	      0.0000
    252.0677	      0.0000
    252.0715	      0.0000
    252.0753	    479.2430
    252.0791	   1242.0814
    252.0829	   2056.7769
    252.0867	   2343.4070
    252.0905	   1884.3855
    252.0943	   1043.7030
    252.0981	    382.5559
    252.1023	      0.0000
    252.1061	      0.0000
    252.1099	      0.0000
    252.1137	      0.0000
    253.0618	      0.0000
    253.0657	      0.0000
    253.0695	      0.0000
    253.0733	      0.0000
    253.0771	    755.1260
    253.0809	   1967.7542
    253.0848	   6579.2422
    253.0886	  13088.7061
    253.0924	  19758.0215
    253.0962	  18935.6719
    253.1000	  11848.2314
    253.1039	   5232.9355
    253.1077	   1175.7451
    253.1115	    133.5670
    253.1148	      0.0000
    253.1187	      0.0000
    253.1225	      0.0000
    253.1263	      0.0000
    254.0686	      0.0000
    254.0725	      0.0000
    254.0763	      0.0000
    254.0802	      0.0000
    254.0840	    436.4280
    254.0878	    875.7816
    254.0917	   1218.6429
    254.0955	   1219.9878
    254.0994	    854.0746
    254.1033	      0.0000
    254.1072	      0.0000
    254.1110	      0.0000
    254.1148	      0.0000
    258.1192	      0.0000
    258.1231	      0.0000
    258.1271	      0.0000
    258.1310	      0.0000
    258.1349	    646.5550
    258.1389	   1465.2593
    258.1428	   2119.7188
