# ljz_20131022_MR_Chym1_ELUTE.mzML
#
# index: 6786
# id: controllerType=0 controllerNumber=1 scan=14306
# scanNumber: 14306
# massAnalyzerType: quadrupole
# scanEvent: 2
# msLevel: 2
# retentionTime: 3411.61
# filterString: FTMS + p NSI d Full ms2 1018.11@hcd28.00 [100.00-3135.00]
# mzLow: 99.0035
# mzHigh: 3167.28
# basePeakMZ: 204.087
# basePeakIntensity: 80434.5
# totalIonCurrent: 299664
# precursorCount: 1
# precursor 0: 1017.77 414851
# binary (482): 
     99.0035	      0.0000
     99.0044	      0.0000
     99.0053	      0.0000
     99.0063	      0.0000
    115.0284	      0.0000
    115.0296	      0.0000
    115.0307	      0.0000
    115.0319	      0.0000
    115.0331	    572.2834
    115.0342	   1749.8839
    115.0354	   4334.8672
    115.0366	   7095.7153
    115.0377	   8233.1104
    115.0389	   6029.1724
    115.0401	   3439.3030
    115.0413	   1048.6774
    115.0424	    351.2195
    115.0436	      0.0000
    115.0448	      0.0000
    115.0459	      0.0000
    115.0471	      0.0000
    126.0440	      0.0000
    126.0453	      0.0000
    126.0467	      0.0000
    126.0480	      0.0000
    126.0494	    395.2109
    126.0507	   1977.5858
    126.0520	   7363.4658
    126.0534	  16320.5068
    126.0547	  26092.8438
    126.0561	  28156.2070
    126.0574	  18886.4277
    126.0588	   9571.4561
    126.0601	   2350.5298
    126.0614	    102.9390
    126.0627	      0.0000
    126.0640	      0.0000
    126.0654	      0.0000
    126.0667	      0.0000
    127.0295	      0.0000
    127.0308	      0.0000
    127.0322	      0.0000
    127.0336	      0.0000
    127.0349	    710.6446
    127.0363	   2334.2627
    127.0376	   4622.7358
    127.0390	   6803.8447
    127.0403	   6129.4429
    127.0417	   3657.1948
    127.0431	   1468.8079
    127.0444	    549.3240
    127.0458	      0.0000
    127.0471	      0.0000
    127.0485	      0.0000
    127.0499	      0.0000
    127.0512	      0.0000
    127.0526	      0.0000
    127.0539	      0.0000
    127.0553	    292.6932
    127.0566	   1009.2037
    127.0580	   1746.3491
    127.0594	   1977.0240
    127.0607	   1532.1193
    127.0621	    770.2075
    127.0634	      0.0000
    127.0648	      0.0000
    127.0661	      0.0000
    127.0675	      0.0000
    138.0416	      0.0000
    138.0431	      0.0000
    138.0447	      0.0000
    138.0462	      0.0000
    138.0478	    771.3983
    138.0493	   2268.3955
    138.0508	   8276.1729
    138.0524	  24977.0586
    138.0539	  42698.6797
    138.0555	  55285.2578
    138.0570	  42844.2266
    138.0585	  25012.6055
    138.0601	   8090.2339
    138.0616	   1850.1257
    138.0631	    354.1830
    138.0646	      0.0000
    138.0662	      0.0000
    138.0677	      0.0000
    138.0692	      0.0000
    139.0470	      0.0000
    139.0485	      0.0000
    139.0501	      0.0000
    139.0516	      0.0000
    139.0532	    267.8608
    139.0547	   1083.1429
    139.0563	   2335.5303
    139.0579	   3244.9004
    139.0594	   3119.8088
    139.0610	   2073.1353
    139.0625	    899.6015
    139.0641	      0.0000
    139.0657	      0.0000
    139.0672	      0.0000
    139.0688	      0.0000
    144.0557	      0.0000
    144.0573	      0.0000
    144.0589	      0.0000
    144.0606	      0.0000
    144.0622	    822.4557
    144.0639	   1407.0807
    144.0655	   1816.9574
    144.0671	   1799.8660
    144.0688	   1372.3855
    144.0704	    796.5500
    144.0720	      0.0000
    144.0737	      0.0000
    144.0753	      0.0000
    144.0770	      0.0000
    145.0381	      0.0000
    145.0398	      0.0000
    145.0414	      0.0000
    145.0431	      0.0000
    145.0447	    855.3138
    145.0464	   2633.2585
    145.0480	   5024.6074
    145.0497	   7263.8882
    145.0514	   6494.1699
    145.0530	   3987.0344
    145.0547	   1428.9160
    145.0563	    478.8916
    145.0578	      0.0000
    145.0595	      0.0000
    145.0611	      0.0000
    145.0628	      0.0000
    163.0455	      0.0000
    163.0475	      0.0000
    163.0494	      0.0000
    163.0514	      0.0000
    163.0534	    704.7401
    163.0554	   3249.2566
    163.0573	   7192.1816
    163.0593	  11353.5645
    163.0613	  11555.6641
    163.0633	   7479.5254
    163.0652	   3581.1836
    163.0672	    879.1394
    163.0694	      0.0000
    163.0714	      0.0000
    163.0734	      0.0000
    163.0753	      0.0000
    166.8452	      0.0000
    166.8472	      0.0000
    166.8493	      0.0000
    166.8513	      0.0000
    166.8534	    593.7900
    166.8554	   1095.0271
    166.8575	   1415.4397
    166.8595	   1370.7802
    166.8615	    980.8347
    166.8636	      0.0000
    166.8657	      0.0000
    166.8677	      0.0000
    166.8698	      0.0000
    168.0496	      0.0000
    168.0517	      0.0000
    168.0537	      0.0000
    168.0558	      0.0000
    168.0579	    829.2620
    168.0599	   3607.2512
    168.0620	  11301.3037
    168.0641	  19451.4160
    168.0661	  25019.4316
    168.0682	  19111.7988
    168.0703	  10991.7646
    168.0723	   3365.5234
    168.0744	    623.8101
    168.0768	      0.0000
    168.0788	      0.0000
    168.0809	      0.0000
    168.0830	      0.0000
    186.0568	      0.0000
    186.0592	      0.0000
    186.0616	      0.0000
    186.0640	      0.0000
    186.0664	     98.9814
    186.0688	   1170.4650
    186.0712	   4447.5791
    186.0736	   8787.8125
    186.0760	  13158.3945
    186.0784	  12198.2764
    186.0808	   7486.8501
    186.0832	   3130.7778
    186.0856	    595.5293
    186.0878	      0.0000
    186.0902	      0.0000
    186.0926	      0.0000
    186.0950	      0.0000
    202.0635	      0.0000
    202.0662	      0.0000
    202.0689	      0.0000
    202.0716	      0.0000
    202.0744	    806.7189
    202.0771	   1890.9447
    202.0798	   4264.9756
    202.0825	   5612.9004
    202.0853	   4452.6768
    202.0880	   2069.5730
    202.0907	    901.7582
    202.0937	      0.0000
    202.0964	      0.0000
    202.0992	      0.0000
    202.1019	      0.0000
    204.0591	      0.0000
    204.0619	      0.0000
    204.0646	      0.0000
    204.0674	      0.0000
    204.0702	    990.0201
    204.0729	   1527.8997
    204.0757	   2723.0918
    204.0785	   9215.5596
    204.0812	  30279.3574
    204.0840	  56181.2852
    204.0868	  79804.2813
    204.0895	  69298.7500
    204.0923	  42056.0000
    204.0951	  16837.5547
    204.0978	   4385.8062
    204.1006	   1584.6556
    204.1034	   1572.5376
    204.1061	    815.8834
    204.1087	      0.0000
    204.1115	      0.0000
    204.1142	      0.0000
    204.1170	      0.0000
    205.0719	      0.0000
    205.0747	      0.0000
    205.0775	      0.0000
    205.0802	      0.0000
    205.0830	    616.6901
    205.0858	   1454.9612
    205.0886	   2268.6809
    205.0914	   2446.4390
    205.0942	   1833.5460
    205.0970	    886.2009
    205.0999	      0.0000
    205.1027	      0.0000
    205.1054	      0.0000
    205.1082	      0.0000
    246.0874	      0.0000
    246.0911	      0.0000
    246.0947	      0.0000
    246.0984	      0.0000
    246.1021	    743.6199
    246.1057	   1197.5095
    246.1094	   1375.8885
    246.1130	   1191.5768
    246.1167	    767.7189
    246.1204	      0.0000
    246.1241	      0.0000
    246.1277	      0.0000
    246.1314	      0.0000
    273.0901	      0.0000
    273.0944	      0.0000
    273.0987	      0.0000
    273.1029	      0.0000
    273.1072	    489.9254
    273.1115	   1345.8197
    273.1158	   2229.4014
    273.1201	   2524.4204
    273.1243	   2004.3837
    273.1286	   1066.1326
    273.1330	      0.0000
    273.1373	      0.0000
    273.1416	      0.0000
    273.1458	      0.0000
    285.0301	      0.0000
    285.0347	      0.0000
    285.0393	      0.0000
    285.0438	      0.0000
    285.0484	    842.2601
    285.0530	   1418.2964
    285.0575	   1609.3402
    285.0621	   1263.1361
    285.0667	    639.5865
    285.0714	      0.0000
    285.0759	      0.0000
    285.0805	      0.0000
    285.0851	      0.0000
    335.5328	      0.0000
    335.5387	      0.0000
    335.5445	      0.0000
    335.5503	      0.0000
    335.5562	    690.5680
    335.5620	   1209.1111
    335.5678	   1496.8259
    335.5736	   1409.6016
    335.5795	   1021.8478
    335.5854	      0.0000
    335.5913	      0.0000
    335.5971	      0.0000
    335.6029	      0.0000
    360.1073	      0.0000
    360.1138	      0.0000
    360.1203	      0.0000
    360.1267	      0.0000
    360.1332	    656.2449
    360.1397	   1378.1644
    360.1462	   2013.4437
    360.1527	   2134.5059
    360.1592	   1619.5776
    360.1656	    810.7827
    360.1734	      0.0000
    360.1799	      0.0000
    360.1864	      0.0000
    360.1929	      0.0000
    366.0937	      0.0000
    366.1003	      0.0000
    366.1070	      0.0000
    366.1136	      0.0000
    366.1203	    925.0185
    366.1269	   3907.5422
    366.1336	   7571.0161
    366.1402	  10863.7900
    366.1469	   9173.9150
    366.1535	   5369.7705
    366.1602	   1815.2799
    366.1668	    219.2312
    366.1723	      0.0000
    366.1789	      0.0000
    366.1856	      0.0000
    366.1922	      0.0000
    378.1143	      0.0000
    378.1213	      0.0000
    378.1283	      0.0000
    378.1353	      0.0000
    378.1422	   1036.5500
    378.1492	   2737.0850
    378.1562	   4787.4248
    378.1632	   5821.5020
    378.1701	   4094.0291
    378.1771	   2118.6240
    378.1841	    868.4642
    378.1914	      0.0000
    378.1984	      0.0000
    378.2054	      0.0000
    378.2123	      0.0000
    436.0924	      0.0000
    436.1011	      0.0000
    436.1097	      0.0000
    436.1183	      0.0000
    436.1270	    676.6573
    436.1356	   1176.5327
    436.1442	   1373.7518
    436.1529	   1158.6667
    436.1615	    697.0854
    436.1702	      0.0000
    436.1788	      0.0000
    436.1874	      0.0000
    436.1961	      0.0000
    451.9941	      0.0000
    452.0032	      0.0000
    452.0123	      0.0000
    452.0214	      0.0000
    452.0305	    627.8030
    452.0397	   1281.1658
    452.0488	   1691.5703
    452.0579	   1561.5244
    452.0670	    982.6128
    452.0763	      0.0000
    452.0855	      0.0000
    452.0946	      0.0000
    452.1037	      0.0000
    477.1625	      0.0000
    477.1724	      0.0000
    477.1823	      0.0000
    477.1922	      0.0000
    477.2021	    368.8244
    477.2120	   1202.0659
    477.2218	   2177.1550
    477.2317	   2566.5444
    477.2416	   2037.9576
    477.2515	   1008.5782
    477.2619	      0.0000
    477.2718	      0.0000
    477.2817	      0.0000
    477.2915	      0.0000
    708.3764	      0.0000
    708.3943	      0.0000
    708.4122	      0.0000
    708.4301	      0.0000
    708.4479	   1040.6893
    708.4658	   1656.2794
    708.4837	   1760.3517
    708.5016	   1231.5171
    708.5195	    461.5739
    708.5374	      0.0000
    708.5553	      0.0000
    708.5732	      0.0000
    708.5911	      0.0000
    744.6187	      0.0000
    744.6380	      0.0000
    744.6573	      0.0000
    744.6765	      0.0000
    744.6958	    842.5496
    744.7151	   1351.0819
    744.7344	   1613.6315
    744.7536	   1422.1943
    744.7729	    856.8642
    744.7923	      0.0000
    744.8115	      0.0000
    744.8308	      0.0000
    744.8501	      0.0000
    772.1695	      0.0000
    772.1899	      0.0000
    772.2102	      0.0000
    772.2306	      0.0000
    772.2509	    740.8788
    772.2713	   1236.7273
    772.2916	   1479.2642
    772.3120	   1330.5427
    772.3324	    883.5933
    772.3528	      0.0000
    772.3731	      0.0000
    772.3935	      0.0000
    772.4138	      0.0000
    812.0568	      0.0000
    812.0787	      0.0000
    812.1007	      0.0000
    812.1226	      0.0000
    812.1446	   1053.9402
    812.1665	   1506.7240
    812.1885	   1652.2386
    812.2105	   1417.8600
    812.2324	    919.7418
    812.2544	      0.0000
    812.2764	      0.0000
    812.2984	      0.0000
    812.3203	      0.0000
    853.2458	      0.0000
    853.2694	      0.0000
    853.2931	      0.0000
    853.3167	      0.0000
    853.3404	    573.4510
    853.3640	   1406.0325
    853.3876	   2099.1184
    853.4113	   2164.7109
    853.4349	   1549.0513
    853.4586	    718.5486
    853.4824	      0.0000
    853.5060	      0.0000
    853.5297	      0.0000
    853.5533	      0.0000
    954.2494	      0.0000
    954.2773	      0.0000
    954.3053	      0.0000
    954.3332	      0.0000
    954.3612	    916.1268
    954.3892	   1968.6669
    954.4171	   2862.6450
    954.4451	   3023.2256
    954.4731	   2322.8389
    954.5011	   1253.7627
    954.5293	      0.0000
    954.5573	      0.0000
    954.5853	      0.0000
    954.6132	      0.0000
   1212.1101	      0.0000
   1212.1501	      0.0000
   1212.1902	      0.0000
   1212.2302	      0.0000
   1212.2702	    658.3854
   1212.3103	   1436.8807
   1212.3503	   2010.6758
   1212.3904	   2007.1021
   1212.4304	   1452.7050
   1212.4705	    726.8177
   1212.5105	      0.0000
   1212.5506	      0.0000
   1212.5906	      0.0000
   1212.6307	      0.0000
   3166.7703	      0.0000
   3166.9393	      0.0000
   3167.1084	      0.0000
   3167.2774	      0.0000
