# ljz_20131022_MR_Chym1_ELUTE.mzML
#
# index: 6940
# id: controllerType=0 controllerNumber=1 scan=14763
# scanNumber: 14763
# massAnalyzerType: quadrupole
# scanEvent: 2
# msLevel: 2
# retentionTime: 3533.51
# filterString: FTMS + p NSI d Full ms2 420.53@hcd28.00 [100.00-1310.00]
# mzLow: 99.0036
# mzHigh: 1323.38
# basePeakMZ: 110.072
# basePeakIntensity: 55503.2
# totalIonCurrent: 519360
# precursorCount: 1
# precursor 0: 420.195 696147
# binary (1483): 
     99.0036	      0.0000
     99.0045	      0.0000
     99.0054	      0.0000
     99.0064	      0.0000
    105.0604	      0.0000
    105.0614	      0.0000
    105.0625	      0.0000
    105.0635	      0.0000
    105.0645	    555.8967
    105.0655	   1083.2723
    105.0665	   1340.0529
    105.0676	   1127.5206
    105.0686	    625.2625
    105.0698	      0.0000
    105.0708	      0.0000
    105.0718	      0.0000
    105.0729	      0.0000
    110.0585	      0.0000
    110.0596	      0.0000
    110.0607	      0.0000
    110.0618	      0.0000
    110.0629	      0.0000
    110.0640	   1059.4045
    110.0651	   1319.7338
    110.0662	   1913.1931
    110.0673	   2588.7576
    110.0684	   6147.1416
    110.0695	  18843.2969
    110.0706	  36431.8828
    110.0716	  54264.2148
    110.0727	  50919.7969
    110.0738	  31562.5078
    110.0749	  13598.3008
    110.0760	   2816.3230
    110.0771	    395.1851
    110.0780	      0.0000
    110.0791	      0.0000
    110.0802	    928.3343
    110.0813	      0.0000
    110.0823	      0.0000
    110.0834	      0.0000
    110.0845	      0.0000
    110.0856	      0.0000
    111.0672	      0.0000
    111.0683	      0.0000
    111.0695	      0.0000
    111.0706	      0.0000
    111.0717	    442.0710
    111.0728	   1253.4919
    111.0739	   2933.2139
    111.0750	   3915.2324
    111.0761	   2957.9719
    111.0772	   1259.4387
    111.0783	    433.3877
    111.0796	      0.0000
    111.0807	      0.0000
    111.0818	      0.0000
    111.0829	      0.0000
    117.0573	      0.0000
    117.0585	      0.0000
    117.0597	      0.0000
    117.0609	      0.0000
    117.0621	    505.2873
    117.0633	   1755.6051
    117.0645	   3921.2390
    117.0657	   6300.1226
    117.0669	   6756.7642
    117.0681	   4424.3003
    117.0693	   2104.9653
    117.0705	    302.4292
    117.0719	      0.0000
    117.0731	      0.0000
    117.0743	      0.0000
    117.0755	      0.0000
    120.0709	      0.0000
    120.0721	      0.0000
    120.0734	      0.0000
    120.0746	      0.0000
    120.0759	    491.8910
    120.0771	   1204.9241
    120.0784	   3388.5862
    120.0796	   6907.4878
    120.0809	  10738.5322
    120.0821	  11098.8369
    120.0834	   7196.5176
    120.0846	   3385.9756
    120.0858	    586.3890
    120.0866	      0.0000
    120.0878	      0.0000
    120.0891	      0.0000
    120.0903	      0.0000
    123.0720	      0.0000
    123.0733	      0.0000
    123.0746	      0.0000
    123.0759	      0.0000
    123.0772	    364.6234
    123.0785	    802.2816
    123.0798	   1132.8732
    123.0811	   1133.1166
    123.0824	    793.3660
    123.0837	    339.8678
    123.0854	      0.0000
    123.0867	      0.0000
    123.0880	      0.0000
    123.0893	      0.0000
    129.0918	      0.0000
    129.0932	      0.0000
    129.0946	      0.0000
    129.0960	      0.0000
    129.0974	    501.1651
    129.0988	   1381.0520
    129.1001	   3981.9565
    129.1015	   7146.1426
    129.1029	   9742.1133
    129.1043	   8012.7407
    129.1057	   4695.0542
    129.1071	   1515.7186
    129.1085	     57.7660
    129.1094	      0.0000
    129.1107	      0.0000
    129.1121	      0.0000
    129.1135	      0.0000
    132.2982	      0.0000
    132.2996	      0.0000
    132.3011	      0.0000
    132.3025	      0.0000
    132.3040	    559.6882
    132.3054	    957.5060
    132.3069	   1150.3629
    132.3083	   1020.1344
    132.3098	    658.1490
    132.3112	      0.0000
    132.3126	      0.0000
    132.3141	    650.4506
    132.3155	   1194.8473
    132.3170	   1504.3975
    132.3184	   1294.0863
    132.3199	    701.9562
    132.3216	      0.0000
    132.3231	      0.0000
    132.3245	      0.0000
    132.3259	      0.0000
    133.0319	      0.0000
    133.0334	      0.0000
    133.0348	      0.0000
    133.0363	      0.0000
    133.0377	    437.5956
    133.0392	   1316.1927
    133.0407	   3935.1836
    133.0421	   6974.0752
    133.0436	   9530.4980
    133.0450	   7916.0220
    133.0465	   4619.6455
    133.0479	   1559.0555
    133.0494	     55.9054
    133.0506	      0.0000
    133.0520	      0.0000
    133.0535	      0.0000
    133.0549	      0.0000
    145.0481	      0.0000
    145.0498	      0.0000
    145.0515	      0.0000
    145.0531	      0.0000
    145.0548	    195.9120
    145.0564	   1236.7438
    145.0581	   3652.0796
    145.0597	   6232.7544
    145.0614	   7885.6475
    145.0631	   6032.0366
    145.0647	   3431.9250
    145.0664	    997.5400
    145.0680	      0.0000
    145.0699	      0.0000
    145.0716	      0.0000
    145.0732	      0.0000
    145.0749	      0.0000
    149.0067	      0.0000
    149.0084	      0.0000
    149.0101	      0.0000
    149.0118	      0.0000
    149.0136	    469.3858
    149.0153	   1129.8132
    149.0170	   2983.6768
    149.0187	   8892.5811
    149.0205	  24836.0605
    149.0222	  42068.8320
    149.0239	  54128.3750
    149.0256	  41833.2070
    149.0274	  24260.7676
    149.0291	   7453.7031
    149.0308	   1133.9269
    149.0325	      0.0000
    149.0340	      0.0000
    149.0357	      0.0000
    149.0374	      0.0000
    149.0391	      0.0000
    150.0138	      0.0000
    150.0156	      0.0000
    150.0173	      0.0000
    150.0191	      0.0000
    150.0208	    391.0417
    150.0226	   1336.7354
    150.0243	   3212.4929
    150.0260	   5261.4717
    150.0278	   5704.2090
    150.0295	   3722.3113
    150.0313	   1736.7549
    150.0330	    298.7947
    150.0348	      0.0000
    150.0365	      0.0000
    150.0382	      0.0000
    150.0400	      0.0000
    150.0557	      0.0000
    150.0574	      0.0000
    150.0592	      0.0000
    150.0609	      0.0000
    150.0627	    627.8607
    150.0644	   1034.1758
    150.0661	   1154.4604
    150.0679	    901.3962
    150.0696	    451.4279
    150.0713	      0.0000
    150.0731	      0.0000
    150.0748	      0.0000
    150.0766	      0.0000
    155.0795	      0.0000
    155.0813	      0.0000
    155.0832	      0.0000
    155.0850	      0.0000
    155.0868	    331.5209
    155.0887	    866.7456
    155.0905	   1676.3639
    155.0923	   2263.2114
    155.0942	   2205.5205
    155.0960	   1548.2212
    155.0978	    745.1152
    155.0997	      0.0000
    155.1016	      0.0000
    155.1034	      0.0000
    155.1052	      0.0000
    166.0488	      0.0000
    166.0508	      0.0000
    166.0528	      0.0000
    166.0549	      0.0000
    166.0569	    443.6052
    166.0589	   1008.8395
    166.0609	   1421.1915
    166.0630	   1374.9139
    166.0650	    899.3978
    166.0670	    352.4842
    166.0691	      0.0000
    166.0711	      0.0000
    166.0731	      0.0000
    166.0752	      0.0000
    166.0772	      0.0000
    166.0792	      0.0000
    166.0812	    681.1094
    166.0833	   1527.8680
    166.0853	   2254.7229
    166.0873	   2339.4517
    166.0894	   1726.2147
    166.0914	    872.2625
    166.0934	    301.7814
    166.0954	      0.0000
    166.0975	      0.0000
    166.0995	      0.0000
    166.1015	      0.0000
    167.0191	      0.0000
    167.0211	      0.0000
    167.0232	      0.0000
    167.0252	      0.0000
    167.0273	    524.2885
    167.0293	   1514.2024
    167.0314	   3270.2693
    167.0334	   5079.7163
    167.0355	   4790.1118
    167.0375	   2838.0632
    167.0396	   1033.6224
    167.0416	    483.7402
    167.0439	      0.0000
    167.0460	      0.0000
    167.0480	      0.0000
    167.0501	      0.0000
    171.1185	      0.0000
    171.1207	      0.0000
    171.1228	      0.0000
    171.1249	      0.0000
    171.1270	    627.8137
    171.1292	    854.1415
    171.1313	   2459.1125
    171.1334	   8172.7358
    171.1355	  16349.4854
    171.1377	  24952.2793
    171.1398	  24374.0020
    171.1419	  15411.5098
    171.1440	   7078.5308
    171.1461	   1516.2155
    171.1483	     17.4718
    171.1501	      0.0000
    171.1522	      0.0000
    171.1543	      0.0000
    171.1564	      0.0000
    172.1270	      0.0000
    172.1291	      0.0000
    172.1312	      0.0000
    172.1334	      0.0000
    172.1355	    325.0704
    172.1377	    938.5720
    172.1398	   1638.3191
    172.1419	   1891.7781
    172.1441	   1471.7827
    172.1462	    705.8662
    172.1485	      0.0000
    172.1506	      0.0000
    172.1527	      0.0000
    172.1549	      0.0000
    173.1145	      0.0000
    173.1166	      0.0000
    173.1188	      0.0000
    173.1209	      0.0000
    173.1231	    472.4276
    173.1253	   1187.7125
    173.1274	   1856.2815
    173.1296	   2007.0663
    173.1318	   1533.3334
    173.1339	    807.2230
    173.1361	    313.7441
    173.1382	      0.0000
    173.1404	      0.0000
    173.1425	      0.0000
    173.1447	      0.0000
    179.0782	      0.0000
    179.0804	      0.0000
    179.0827	      0.0000
    179.0850	      0.0000
    179.0873	    573.3563
    179.0895	   1217.1805
    179.0918	   1709.3208
    179.0941	   1672.0638
    179.0964	   1110.5348
    179.0986	    432.6723
    179.1009	      0.0000
    179.1032	      0.0000
    179.1054	      0.0000
    179.1077	      0.0000
    180.0642	      0.0000
    180.0665	      0.0000
    180.0688	      0.0000
    180.0711	      0.0000
    180.0734	    433.0528
    180.0757	    910.6523
    180.0780	   1196.3082
    180.0802	   1093.0029
    180.0825	    686.8687
    180.0848	      0.0000
    180.0871	      0.0000
    180.0894	      0.0000
    180.0917	      0.0000
    181.0931	      0.0000
    181.0954	      0.0000
    181.0977	      0.0000
    181.1000	      0.0000
    181.1023	    720.5244
    181.1046	   1845.1285
    181.1069	   3249.7837
    181.1093	   4013.9526
    181.1116	   2865.3572
    181.1139	   1216.0134
    181.1162	    427.5572
    181.1185	      0.0000
    181.1208	      0.0000
    181.1231	      0.0000
    181.1255	      0.0000
    192.0596	      0.0000
    192.0621	      0.0000
    192.0646	      0.0000
    192.0672	      0.0000
    192.0697	    568.6888
    192.0722	   1284.0541
    192.0747	   2037.5619
    192.0773	   2332.3000
    192.0798	   1939.9178
    192.0823	   1133.6725
    192.0848	    428.5416
    192.0874	      0.0000
    192.0900	      0.0000
    192.0925	      0.0000
    192.0950	      0.0000
    197.0844	      0.0000
    197.0870	      0.0000
    197.0896	      0.0000
    197.0923	      0.0000
    197.0949	    126.4981
    197.0975	   1691.4675
    197.1001	   3435.3062
    197.1028	   4933.1719
    197.1054	   3900.9558
    197.1080	   2238.8169
    197.1106	    496.9693
    197.1133	    734.2509
    197.1159	   1614.5245
    197.1185	   2055.8872
    197.1211	   1624.4962
    197.1238	    806.3309
    197.1264	    239.8224
    197.1290	      0.0000
    197.1317	      0.0000
    197.1343	      0.0000
    197.1369	      0.0000
    206.5844	      0.0000
    206.5872	      0.0000
    206.5900	      0.0000
    206.5928	      0.0000
    206.5957	    359.1875
    206.5985	    821.6005
    206.6013	   1138.2965
    206.6041	   1114.8491
    206.6069	    787.5374
    206.6097	    380.7739
    206.6126	      0.0000
    206.6154	      0.0000
    206.6182	      0.0000
    206.6210	      0.0000
    207.0669	      0.0000
    207.0697	      0.0000
    207.0725	      0.0000
    207.0753	      0.0000
    207.0782	    254.7936
    207.0810	    881.0986
    207.0838	   1871.9310
    207.0866	   3946.6135
    207.0895	   3845.5674
    207.0923	   2303.3047
    207.0951	   1077.9899
    207.0979	    422.1389
    207.1008	      0.0000
    207.1036	      0.0000
    207.1064	      0.0000
    207.1092	      0.0000
    208.0539	      0.0000
    208.0568	      0.0000
    208.0596	      0.0000
    208.0625	      0.0000
    208.0653	    433.7887
    208.0682	    935.8227
    208.0710	   1318.6624
    208.0739	   1275.2600
    208.0767	    820.1439
    208.0795	    275.2439
    208.0823	      0.0000
    208.0851	      0.0000
    208.0880	      0.0000
    208.0908	      0.0000
    209.0824	      0.0000
    209.0852	      0.0000
    209.0881	      0.0000
    209.0910	      0.0000
    209.0938	    493.1067
    209.0967	   2083.6804
    209.0996	   4432.9775
    209.1024	   6929.1699
    209.1053	   6864.8252
    209.1082	   4426.0781
    209.1110	   2145.9597
    209.1139	    709.6951
    209.1169	      0.0000
    209.1198	      0.0000
    209.1226	      0.0000
    209.1255	      0.0000
    211.5999	      0.0000
    211.6028	      0.0000
    211.6057	      0.0000
    211.6086	      0.0000
    211.6115	    502.7761
    211.6145	   1050.4475
    211.6174	   1394.1295
    211.6203	   1258.8693
    211.6232	    755.1854
    211.6261	    260.0167
    211.6294	      0.0000
    211.6324	      0.0000
    211.6353	      0.0000
    211.6382	      0.0000
    225.0658	      0.0000
    225.0690	      0.0000
    225.0722	      0.0000
    225.0754	      0.0000
    225.0786	    581.2258
    225.0818	    823.2516
    225.0850	   1165.5968
    225.0883	   3439.1187
    225.0915	  11220.9443
    225.0947	  21435.8164
    225.0979	  31462.5918
    225.1011	  28859.0977
    225.1043	  17787.2363
    225.1075	   7608.8188
    225.1107	   1617.2234
    225.1139	     33.2085
    225.1167	      0.0000
    225.1199	      0.0000
    225.1231	      0.0000
    225.1264	      0.0000
    226.0810	      0.0000
    226.0842	      0.0000
    226.0874	      0.0000
    226.0906	      0.0000
    226.0939	    448.0136
    226.0971	   1214.4448
    226.1003	   1853.8729
    226.1035	   1861.5454
    226.1068	   1243.8927
    226.1100	    510.6784
    226.1133	      0.0000
    226.1165	      0.0000
    226.1197	      0.0000
    226.1230	      0.0000
    234.7070	      0.0000
    234.7104	      0.0000
    234.7138	      0.0000
    234.7173	      0.0000
    234.7207	    639.8972
    234.7241	   1035.2755
    234.7275	   1165.4689
    234.7309	    940.8115
    234.7343	    517.9329
    234.7377	      0.0000
    234.7411	      0.0000
    234.7445	      0.0000
    234.7479	      0.0000
    240.6109	      0.0000
    240.6144	      0.0000
    240.6180	      0.0000
    240.6215	      0.0000
    240.6251	    369.2186
    240.6286	    734.7936
    240.6321	    970.3896
    240.6357	    901.5474
    240.6392	    561.2704
    240.6428	      0.0000
    240.6463	      0.0000
    240.6498	      0.0000
    240.6534	      0.0000
    242.1011	      0.0000
    242.1047	      0.0000
    242.1083	      0.0000
    242.1118	      0.0000
    242.1154	    324.6816
    242.1190	    773.8699
    242.1226	   1151.4725
    242.1261	   1137.0455
    242.1297	    738.4313
    242.1333	    249.4797
    242.1370	      0.0000
    242.1405	      0.0000
    242.1441	      0.0000
    242.1477	      0.0000
    248.0878	      0.0000
    248.0915	      0.0000
    248.0953	      0.0000
    248.0990	      0.0000
    248.1027	    471.8058
    248.1064	   1857.7993
    248.1101	   3455.1079
    248.1138	   4864.5581
    248.1175	   4146.9243
    248.1212	   2386.0623
    248.1249	    742.9893
    248.1286	    376.4576
    248.1323	      0.0000
    248.1360	      0.0000
    248.1397	      0.0000
    248.1434	      0.0000
    254.1109	      0.0000
    254.1147	      0.0000
    254.1186	      0.0000
    254.1224	      0.0000
    254.1263	    557.1724
    254.1301	   1456.0675
    254.1339	   3414.4592
    254.1378	   4091.7395
    254.1416	   2823.4451
    254.1455	   1386.7877
    254.1493	    583.3058
    254.1532	      0.0000
    254.1570	      0.0000
    254.1608	      0.0000
    254.1647	      0.0000
    254.6111	      0.0000
    254.6150	      0.0000
    254.6188	      0.0000
    254.6227	      0.0000
    254.6265	    707.3127
    254.6304	   1217.7859
    254.6342	   1582.4565
    254.6381	   1643.7512
    254.6420	   1393.6776
    254.6458	    958.2435
    254.6497	    515.3953
    254.6536	      0.0000
    254.6575	      0.0000
    254.6613	      0.0000
    254.6652	      0.0000
    261.1349	      0.0000
    261.1389	      0.0000
    261.1429	      0.0000
    261.1469	      0.0000
    261.1509	    519.3794
    261.1549	   1050.5807
    261.1589	   1340.4701
    261.1629	   1189.4532
    261.1669	    739.7563
    261.1713	      0.0000
    261.1753	      0.0000
    261.1793	      0.0000
    261.1833	      0.0000
    263.1117	      0.0000
    263.1158	      0.0000
    263.1198	      0.0000
    263.1239	      0.0000
    263.1279	    597.8845
    263.1319	   2279.0479
    263.1360	   6051.6563
    263.1400	  10204.1104
    263.1441	  12243.8574
    263.1481	   8748.4717
    263.1522	   4655.1533
    263.1562	   1225.0367
    263.1603	    161.7833
    263.1640	      0.0000
    263.1680	      0.0000
    263.1721	      0.0000
    263.1761	      0.0000
    263.6140	      0.0000
    263.6181	      0.0000
    263.6222	      0.0000
    263.6262	      0.0000
    263.6303	    365.3282
    263.6343	   1372.5010
    263.6384	   3085.6609
    263.6425	   4936.6816
    263.6465	   5137.8921
    263.6506	   3293.3789
    263.6546	   1451.2858
    263.6587	    115.3668
    263.6632	      0.0000
    263.6672	      0.0000
    263.6713	      0.0000
    263.6753	      0.0000
    266.0920	      0.0000
    266.0961	      0.0000
    266.1003	      0.0000
    266.1044	      0.0000
    266.1085	    413.8861
    266.1126	    958.9174
    266.1167	   2977.6670
    266.1208	   5319.0513
    266.1250	   7314.0581
    266.1291	   6073.9653
    266.1332	   3556.8372
    266.1373	   1245.8027
    266.1414	    160.8815
    266.1452	      0.0000
    266.1493	      0.0000
    266.1534	      0.0000
    266.1575	      0.0000
    267.0991	      0.0000
    267.1032	      0.0000
    267.1074	      0.0000
    267.1115	      0.0000
    267.1156	    404.3326
    267.1198	    906.0328
    267.1239	   1324.4170
    267.1281	   1433.1763
    267.1322	   1199.0253
    267.1363	    773.7659
    267.1405	    366.9867
    267.1447	      0.0000
    267.1489	      0.0000
    267.1530	      0.0000
    267.1571	      0.0000
    280.0881	      0.0000
    280.0926	      0.0000
    280.0970	      0.0000
    280.1014	      0.0000
    280.1059	    665.6857
    280.1103	   1147.9113
    280.1148	   1309.0608
    280.1192	   1044.1813
    280.1237	    564.3613
    280.1282	      0.0000
    280.1327	      0.0000
    280.1371	      0.0000
    280.1416	      0.0000
    296.1011	      0.0000
    296.1060	      0.0000
    296.1108	      0.0000
    296.1156	      0.0000
    296.1205	    543.9568
    296.1253	   1216.8298
    296.1301	   1866.1342
    296.1350	   2041.0074
    296.1398	   1603.0740
    296.1446	    862.4364
    296.1495	    284.6355
    296.1543	      0.0000
    296.1591	      0.0000
    296.1640	      0.0000
    296.1688	      0.0000
    298.0633	      0.0000
    298.0682	      0.0000
    298.0731	      0.0000
    298.0780	      0.0000
    298.0829	    572.0737
    298.0877	   2254.5239
    298.0926	   4062.9250
    298.0975	   5390.9580
    298.1024	   4265.6309
    298.1073	   2505.8098
    298.1122	    827.7490
    298.1170	    337.0279
    298.1219	      0.0000
    298.1268	      0.0000
    298.1317	      0.0000
    298.1366	      0.0000
    301.1079	      0.0000
    301.1128	      0.0000
    301.1178	      0.0000
    301.1227	      0.0000
    301.1277	    264.7544
    301.1326	    887.3927
    301.1376	   1519.2340
    301.1426	   1703.1852
    301.1475	   1315.3615
    301.1525	    675.7769
    301.1574	      0.0000
    301.1624	      0.0000
    301.1673	      0.0000
    301.1723	      0.0000
    307.1240	      0.0000
    307.1291	      0.0000
    307.1342	      0.0000
    307.1393	      0.0000
    307.1444	    417.8736
    307.1495	    849.6077
    307.1546	   1026.4191
    307.1597	    804.2325
    307.1648	    373.0890
    307.1699	      0.0000
    307.1751	      0.0000
    307.1802	      0.0000
