# ljz_20131022_MR_Chym1_ELUTE.mzML
#
# index: 1569
# id: controllerType=0 controllerNumber=1 scan=6891
# scanNumber: 6891
# massAnalyzerType: quadrupole
# scanEvent: 2
# msLevel: 2
# retentionTime: 1958.39
# filterString: FTMS + p NSI d Full ms2 473.19@hcd28.00 [100.00-985.00]
# mzLow: 99.0036
# mzHigh: 995.019
# basePeakMZ: 129.103
# basePeakIntensity: 60169.4
# totalIonCurrent: 712681
# precursorCount: 1
# precursor 0: 473.19 2.95369e+006
# binary (2229): 
     99.0036	      0.0000
     99.0045	      0.0000
     99.0055	      0.0000
     99.0064	      0.0000
    102.0481	      0.0000
    102.0491	      0.0000
    102.0501	      0.0000
    102.0511	      0.0000
    102.0521	    578.8245
    102.0530	   2014.5685
    102.0540	   4156.6025
    102.0550	   6422.0684
    102.0560	   6452.7231
    102.0569	   4079.8701
    102.0579	   1787.9292
    102.0589	    175.6139
    102.0601	      0.0000
    102.0611	      0.0000
    102.0621	      0.0000
    102.0631	      0.0000
    106.0410	      0.0000
    106.0420	      0.0000
    106.0430	      0.0000
    106.0441	      0.0000
    106.0451	    566.0134
    106.0461	   1135.3922
    106.0472	   3142.1177
    106.0482	   9695.4453
    106.0492	  18545.5684
    106.0503	  27362.0293
    106.0513	  25264.9531
    106.0523	  15554.9580
    106.0534	   6513.6738
    106.0544	   1197.5414
    106.0555	    116.9670
    106.0563	      0.0000
    106.0574	      0.0000
    106.0584	      0.0000
    106.0594	      0.0000
    110.0628	      0.0000
    110.0639	      0.0000
    110.0650	      0.0000
    110.0661	      0.0000
    110.0672	    377.7111
    110.0683	   1807.6392
    110.0694	   6272.7871
    110.0705	  12051.1680
    110.0716	  17691.7188
    110.0727	  16009.6221
    110.0738	   9783.2188
    110.0749	   4029.4827
    110.0760	    788.2224
    110.0771	     36.0323
    110.0779	      0.0000
    110.0790	      0.0000
    110.0801	      0.0000
    110.0812	      0.0000
    115.0787	      0.0000
    115.0799	      0.0000
    115.0811	      0.0000
    115.0822	      0.0000
    115.0834	    748.2708
    115.0846	   2473.7742
    115.0857	   4349.6948
    115.0869	   5699.4023
    115.0881	   4436.6245
    115.0893	   2558.2896
    115.0904	    723.1552
    115.0916	      0.0000
    115.0928	      0.0000
    115.0939	      0.0000
    115.0951	      0.0000
    116.0082	      0.0000
    116.0094	      0.0000
    116.0106	      0.0000
    116.0118	      0.0000
    116.0129	    459.2626
    116.0141	   2178.8691
    116.0153	   4308.2612
    116.0165	   6232.7280
    116.0177	   5346.5537
    116.0189	   3197.0764
    116.0201	   1215.0795
    116.0212	    446.9933
    116.0226	      0.0000
    116.0237	      0.0000
    116.0249	      0.0000
    116.0261	      0.0000
    120.0706	      0.0000
    120.0718	      0.0000
    120.0731	      0.0000
    120.0743	      0.0000
    120.0756	    556.8174
    120.0768	   2260.5483
    120.0781	   7599.1523
    120.0793	  15989.1377
    120.0806	  25091.8516
    120.0818	  26097.7949
    120.0831	  17177.0820
    120.0843	   8502.5820
    120.0855	   2111.5686
    120.0868	    277.2875
    120.0879	      0.0000
    120.0891	      0.0000
    120.0904	      0.0000
    120.0916	      0.0000
    121.0776	      0.0000
    121.0788	      0.0000
    121.0801	      0.0000
    121.0814	      0.0000
    121.0826	    584.5634
    121.0839	    998.7842
    121.0852	   1108.3694
    121.0864	    833.1188
    121.0877	    381.0908
    121.0889	      0.0000
    121.0902	      0.0000
    121.0914	      0.0000
    121.0927	      0.0000
    126.0466	      0.0000
    126.0479	      0.0000
    126.0493	      0.0000
    126.0506	      0.0000
    126.0519	    360.3098
    126.0533	    764.2482
    126.0546	   1054.7129
    126.0560	   1016.9570
    126.0573	    662.2064
    126.0586	      0.0000
    126.0600	      0.0000
    126.0613	      0.0000
    126.0627	      0.0000
    127.0417	      0.0000
    127.0431	      0.0000
    127.0444	      0.0000
    127.0458	      0.0000
    127.0471	    523.4464
    127.0485	   1085.8685
    127.0499	   1457.6678
    127.0512	   1343.9125
    127.0526	    830.1286
    127.0539	    296.7432
    127.0556	      0.0000
    127.0569	      0.0000
    127.0583	      0.0000
    127.0596	      0.0000
    129.0888	      0.0000
    129.0902	      0.0000
    129.0916	      0.0000
    129.0930	      0.0000
    129.0944	    314.3595
    129.0958	   1255.4459
    129.0972	   3067.5427
    129.0986	   8828.3682
    129.1000	  25420.0020
    129.1013	  44512.3984
    129.1027	  60071.8555
    129.1041	  49065.6875
    129.1055	  28907.2402
    129.1069	   9953.8418
    129.1083	   1563.8523
    129.1097	      0.0000
    129.1108	      0.0000
    129.1122	      0.0000
    129.1136	      0.0000
    129.1149	      0.0000
    130.0398	      0.0000
    130.0412	      0.0000
    130.0426	      0.0000
    130.0440	      0.0000
    130.0454	    462.8398
    130.0468	   1386.8461
    130.0482	   3043.4458
    130.0496	   4768.6929
    130.0510	   4602.4014
    130.0524	   2823.0715
    130.0538	   1073.2437
    130.0552	    357.7614
    130.0566	      0.0000
    130.0580	      0.0000
    130.0594	      0.0000
    130.0609	      0.0000
    130.0974	      0.0000
    130.0989	      0.0000
    130.1003	      0.0000
    130.1017	      0.0000
    130.1031	    606.6789
    130.1045	   1355.4569
    130.1059	   1804.8372
    130.1073	   1582.0898
    130.1087	    885.7957
    130.1101	    263.4453
    130.1115	      0.0000
    130.1129	      0.0000
    130.1143	      0.0000
    130.1157	      0.0000
    132.0647	      0.0000
    132.0661	      0.0000
    132.0676	      0.0000
    132.0690	      0.0000
    132.0704	    360.9867
    132.0719	    916.1780
    132.0733	   1517.4458
    132.0748	   1773.7817
    132.0762	   1465.1896
    132.0776	    786.6857
    132.0791	    238.4417
    132.0805	      0.0000
    132.0820	      0.0000
    132.0834	      0.0000
    132.0848	      0.0000
    132.0906	      0.0000
    132.0920	      0.0000
    132.0935	      0.0000
    132.0949	      0.0000
    132.0964	    406.0658
    132.0978	   1154.5692
    132.0992	   3137.6687
    132.1007	   5255.9487
    132.1021	   6739.7588
    132.1036	   5164.9282
    132.1050	   2895.5789
    132.1064	    646.9603
    132.1079	      0.0000
    132.1093	      0.0000
    132.1108	      0.0000
    132.1122	      0.0000
    132.1266	      0.0000
    132.1281	      0.0000
    132.1295	      0.0000
    132.1309	      0.0000
    132.1324	    569.6395
    132.1338	    948.3943
    132.1353	   1175.7938
    132.1367	   1085.7843
    132.1381	    708.0926
    132.1396	      0.0000
    132.1410	      0.0000
    132.1425	      0.0000
    132.1439	      0.0000
    133.0258	      0.0000
    133.0272	      0.0000
    133.0287	      0.0000
    133.0301	      0.0000
    133.0316	    243.7079
    133.0331	   1815.0049
    133.0345	    942.4068
    133.0362	   1232.0405
    133.0377	   2558.8718
    133.0392	   7611.1260
    133.0406	  22138.4434
    133.0421	  38295.5586
    133.0435	  50971.5625
    133.0450	  40910.8477
    133.0464	  23972.3828
    133.0479	   7947.1914
    133.0493	   1408.0344
    133.0508	      0.0000
    133.0520	      0.0000
    133.0534	      0.0000
    133.0549	      0.0000
    133.0563	    238.4793
    133.0578	   1579.1211
    133.0593	   4471.6416
    133.0607	   6360.5605
    133.0622	   5729.7100
    133.0636	   3715.0786
    133.0651	   1763.3254
    133.0665	    499.1848
    133.0680	      0.0000
    133.0694	      0.0000
    133.0709	      0.0000
    133.0724	      0.0000
    134.0371	      0.0000
    134.0386	      0.0000
    134.0401	      0.0000
    134.0416	      0.0000
    134.0430	    620.1470
    134.0445	   1091.3960
    134.0460	   1441.5764
    134.0474	   1412.4669
    134.0489	    991.8428
    134.0504	    455.6886
    134.0518	      0.0000
    134.0533	      0.0000
    134.0548	      0.0000
    134.0563	      0.0000
    136.0647	      0.0000
    136.0662	      0.0000
    136.0677	      0.0000
    136.0692	      0.0000
    136.0707	    305.0839
    136.0722	    904.9532
    136.0737	   1838.1727
    136.0752	   3629.8167
    136.0767	   3725.9031
    136.0782	   1893.0145
    136.0797	    981.1371
    136.0812	    361.3665
    136.0827	      0.0000
    136.0842	      0.0000
    136.0857	      0.0000
    136.0872	      0.0000
    139.0781	      0.0000
    139.0796	      0.0000
    139.0812	      0.0000
    139.0827	      0.0000
    139.0843	    762.8124
    139.0859	   1081.9702
    139.0874	   1142.9562
    139.0890	    901.2558
    139.0905	    500.5268
    139.0921	      0.0000
    139.0937	      0.0000
    139.0952	      0.0000
    139.0968	      0.0000
    143.0718	      0.0000
    143.0734	      0.0000
    143.0750	      0.0000
    143.0766	      0.0000
    143.0783	    534.0389
    143.0799	   1046.0323
    143.0815	   1352.0542
    143.0831	   1195.5278
    143.0848	    682.6909
    143.0864	      0.0000
    143.0880	      0.0000
    143.0896	      0.0000
    143.0913	      0.0000
    143.1059	      0.0000
    143.1075	      0.0000
    143.1091	      0.0000
    143.1107	      0.0000
    143.1124	    323.3878
    143.1140	    874.3410
    143.1156	   1672.8540
    143.1172	   2233.8882
    143.1189	   2164.3267
    143.1205	   1515.5488
    143.1221	    726.3671
    143.1237	      0.0000
    143.1253	      0.0000
    143.1270	      0.0000
    143.1286	      0.0000
    145.0514	      0.0000
    145.0530	      0.0000
    145.0547	      0.0000
    145.0563	      0.0000
    145.0580	    561.1959
    145.0596	   1115.0365
    145.0613	   1409.0582
    145.0630	   1219.3971
    145.0646	    699.4823
    145.0663	      0.0000
    145.0679	      0.0000
    145.0696	      0.0000
    145.0712	      0.0000
    155.1052	      0.0000
    155.1070	      0.0000
    155.1088	      0.0000
    155.1107	      0.0000
    155.1125	    370.4531
    155.1143	    926.7537
    155.1162	   1506.5946
    155.1180	   1748.7075
    155.1198	   1466.5808
    155.1217	    848.1828
    155.1235	    294.4001
    155.1254	      0.0000
    155.1272	      0.0000
    155.1291	      0.0000
    155.1309	      0.0000
    156.0643	      0.0000
    156.0661	      0.0000
    156.0680	      0.0000
    156.0698	      0.0000
    156.0717	    336.9476
    156.0735	    965.7452
    156.0754	   1736.4644
    156.0772	   2119.1313
    156.0791	   1790.9159
    156.0809	    997.4982
    156.0828	    319.8065
    156.0846	      0.0000
    156.0865	      0.0000
    156.0883	      0.0000
    156.0902	      0.0000
    157.0845	      0.0000
    157.0864	      0.0000
    157.0883	      0.0000
    157.0901	      0.0000
    157.0920	    391.4424
    157.0939	   1013.7944
    157.0957	   1688.2197
    157.0976	   1915.9270
    157.0995	   1495.8419
    157.1014	    740.5193
    157.1032	      0.0000
    157.1051	      0.0000
    157.1069	      0.0000
    157.1088	      0.0000
    157.8098	      0.0000
    157.8116	      0.0000
    157.8135	      0.0000
    157.8154	      0.0000
    157.8173	    394.4474
    157.8192	    785.9258
    157.8210	    994.7111
    157.8229	    861.5328
    157.8248	    471.9124
    157.8267	      0.0000
    157.8286	      0.0000
    157.8304	      0.0000
    157.8323	      0.0000
    159.0620	      0.0000
    159.0639	      0.0000
    159.0658	      0.0000
    159.0677	      0.0000
    159.0696	    225.9018
    159.0715	    760.3719
    159.0734	   1703.9714
    159.0753	   3596.3938
    159.0772	   4012.9514
    159.0791	   2673.8005
    159.0810	   1152.6193
    159.0829	    414.9500
    159.0849	      0.0000
    159.0868	      0.0000
    159.0887	      0.0000
    159.0906	      0.0000
    166.0488	      0.0000
    166.0508	      0.0000
    166.0528	      0.0000
    166.0549	      0.0000
    166.0569	    720.6931
    166.0589	   1470.3927
    166.0609	   1853.5383
    166.0630	   1573.5946
    166.0650	    873.2886
    166.0670	    278.6992
    166.0689	      0.0000
    166.0709	      0.0000
    166.0730	      0.0000
    166.0750	      0.0000
    166.0770	      0.0000
    166.0790	    261.6839
    166.0811	   1724.5925
    166.0831	   4232.7285
    166.0851	   6857.8486
    166.0872	   7214.6587
    166.0892	   4724.7051
    166.0912	   2240.0859
    166.0933	    533.7769
    166.0954	      0.0000
    166.0975	      0.0000
    166.0995	      0.0000
    166.1015	      0.0000
    170.9909	      0.0000
    170.9930	      0.0000
    170.9951	      0.0000
    170.9973	      0.0000
    170.9994	    484.2127
    171.0015	    862.2133
    171.0036	   1013.8984
    171.0058	    808.6928
    171.0079	    388.3109
    171.0100	      0.0000
    171.0121	      0.0000
    171.0142	      0.0000
    171.0164	      0.0000
    171.0991	      0.0000
    171.1012	      0.0000
    171.1034	      0.0000
    171.1055	      0.0000
    171.1076	    540.7245
    171.1097	   1192.7313
    171.1119	   1690.6628
    171.1140	   1684.3103
    171.1161	   1179.9828
    171.1182	    542.9984
    171.1204	      0.0000
    171.1225	      0.0000
    171.1247	      0.0000
    171.1268	      0.0000
    173.0799	      0.0000
    173.0821	      0.0000
    173.0842	      0.0000
    173.0864	      0.0000
    173.0885	    573.7565
    173.0907	    962.8605
    173.0929	   1123.6404
    173.0950	    926.4775
    173.0972	    503.1785
    173.0993	      0.0000
    173.1015	      0.0000
    173.1037	      0.0000
    173.1058	      0.0000
    173.1123	      0.0000
    173.1145	      0.0000
    173.1166	      0.0000
    173.1188	      0.0000
    173.1210	    367.0820
    173.1231	    916.7988
    173.1253	   2143.2334
    173.1274	   3654.5281
    173.1296	   4236.1548
    173.1318	   3015.7197
    173.1339	   1331.7444
    173.1361	    558.3645
    173.1382	      0.0000
    173.1404	      0.0000
    173.1425	      0.0000
    173.1447	      0.0000
    178.0394	      0.0000
    178.0416	      0.0000
    178.0439	      0.0000
    178.0461	      0.0000
    178.0484	    691.9560
    178.0506	   1227.9250
    178.0529	   1587.0712
    178.0551	   1534.7415
    178.0574	   1099.3551
    178.0596	    550.8746
    178.0620	      0.0000
    178.0642	      0.0000
    178.0665	      0.0000
    178.0687	      0.0000
    183.0624	      0.0000
    183.0647	      0.0000
    183.0671	      0.0000
    183.0694	      0.0000
    183.0718	    362.3614
    183.0741	    912.5945
    183.0765	   1323.5907
    183.0788	   1289.6337
    183.0812	    835.6239
    183.0835	    307.4062
    183.0859	      0.0000
    183.0882	      0.0000
    183.0906	      0.0000
    183.0929	      0.0000
    183.0976	      0.0000
    183.1000	      0.0000
    183.1023	      0.0000
    183.1047	      0.0000
    183.1070	    374.0443
    183.1094	    844.9274
    183.1117	   1217.0140
    183.1141	   1216.9780
    183.1164	    838.9521
    183.1188	    359.0302
    183.1211	      0.0000
    183.1235	      0.0000
    183.1258	      0.0000
    183.1282	      0.0000
    184.0555	      0.0000
    184.0578	      0.0000
    184.0602	      0.0000
    184.0626	      0.0000
    184.0649	    471.4689
    184.0673	   1095.1127
    184.0697	   1697.5994
    184.0721	   1870.2728
    184.0744	   1502.9701
    184.0768	    862.3378
    184.0792	    318.0175
    184.0815	      0.0000
    184.0839	      0.0000
    184.0862	      0.0000
    184.0886	      0.0000
    187.0886	      0.0000
    187.0911	      0.0000
    187.0935	      0.0000
    187.0959	      0.0000
    187.0983	      0.0000
    187.1008	    965.0563
    187.1032	   3519.9492
    187.1056	   6314.1323
    187.1081	   8517.7090
    187.1105	   6868.4497
    187.1129	   4005.3479
    187.1153	   1314.1097
    187.1178	    124.2497
    187.1202	      0.0000
    187.1227	      0.0000
    187.1251	      0.0000
    187.1275	      0.0000
    197.1106	      0.0000
    197.1133	      0.0000
    197.1159	      0.0000
    197.1185	      0.0000
    197.1211	    506.5779
    197.1238	   1196.0638
    197.1264	   1882.1666
    197.1290	   2072.7451
    197.1316	   1613.9730
    197.1343	    834.4836
    197.1369	    217.0180
    197.1395	      0.0000
    197.1421	      0.0000
    197.1447	      0.0000
    197.1474	      0.0000
    200.0838	      0.0000
    200.0865	      0.0000
    200.0892	      0.0000
    200.0918	      0.0000
    200.0945	    390.1863
    200.0972	   1028.7010
    200.0999	   1818.2485
    200.1026	   2217.2246
    200.1053	   1926.2633
    200.1079	   1184.3663
    200.1106	    484.4922
    200.1135	      0.0000
    200.1162	      0.0000
    200.1189	      0.0000
    200.1216	      0.0000
    200.1243	      0.0000
    200.1270	      0.0000
    200.1297	    533.9265
    200.1323	   2517.8364
    200.1350	   6644.5034
    200.1377	  11113.3379
    200.1404	  13172.9443
    200.1431	   9382.7344
    200.1458	   5012.4971
    200.1485	   1235.6898
    200.1511	     10.4038
    200.1536	      0.0000
    200.1563	      0.0000
    200.1590	      0.0000
    200.1617	      0.0000
    201.1024	      0.0000
    201.1051	      0.0000
    201.1078	      0.0000
    201.1105	      0.0000
    201.1132	    307.1712
    201.1159	    791.6379
    201.1187	   2217.5667
    201.1214	   3977.5557
    201.1241	   5178.5000
    201.1268	   3876.6475
    201.1295	   2131.2087
    201.1322	    692.3199
    201.1350	      0.0000
    201.1377	      0.0000
    201.1404	      0.0000
    201.1431	      0.0000
    203.1193	      0.0000
    203.1221	      0.0000
    203.1248	      0.0000
    203.1276	      0.0000
    203.1303	    271.8941
    203.1331	    894.7574
    203.1358	   1718.9030
    203.1385	   2282.3535
    203.1413	   2208.7861
    203.1440	   1571.1864
    203.1468	    804.6041
    203.1495	    290.5659
    203.1523	      0.0000
    203.1550	      0.0000
    203.1578	      0.0000
    203.1605	      0.0000
    204.0617	      0.0000
    204.0644	      0.0000
    204.0672	      0.0000
    204.0700	      0.0000
    204.0727	    730.1521
    204.0755	   1506.1907
    204.0783	   1943.6259
    204.0810	   1718.5109
    204.0838	   1041.9324
    204.0866	    402.3203
    204.0893	      0.0000
    204.0921	      0.0000
    204.0948	      0.0000
    204.0976	      0.0000
    212.0854	      0.0000
    212.0883	      0.0000
    212.0912	      0.0000
    212.0942	      0.0000
    212.0971	    768.7527
    212.1000	   1331.7760
    212.1029	   1587.4825
    212.1059	   1322.3469
    212.1088	    713.9612
    212.1117	      0.0000
    212.1147	      0.0000
    212.1176	      0.0000
    212.1205	      0.0000
    213.1056	      0.0000
    213.1086	      0.0000
    213.1115	      0.0000
    213.1145	      0.0000
    213.1174	    488.2401
    213.1204	    887.0880
    213.1233	   1079.2971
    213.1263	    920.1775
    213.1292	    520.8547
    213.1322	      0.0000
    213.1351	      0.0000
    213.1381	      0.0000
    213.1410	      0.0000
    215.0307	      0.0000
    215.0337	      0.0000
    215.0367	      0.0000
    215.0397	      0.0000
    215.0427	    699.7953
    215.0457	   1238.7885
    215.0487	   1469.1354
    215.0517	   1217.9659
    215.0547	    671.9775
    215.0577	      0.0000
    215.0607	      0.0000
    215.0637	      0.0000
    215.0667	      0.0000
    221.0806	      0.0000
    221.0837	      0.0000
    221.0868	      0.0000
    221.0899	      0.0000
    221.0931	    520.4380
    221.0962	   1576.7178
    221.0993	   3273.1201
    221.1024	   5005.8433
    221.1055	   4563.0181
    221.1087	   2654.6565
    221.1118	    906.8839
    221.1149	    407.2711
    221.1183	      0.0000
    221.1214	      0.0000
    221.1245	      0.0000
    221.1277	      0.0000
    226.1265	      0.0000
    226.1297	      0.0000
    226.1329	      0.0000
    226.1361	      0.0000
    226.1394	    516.5078
    226.1426	   1615.4843
    226.1458	   5596.8447
    226.1490	  17055.7422
    226.1523	  29785.5781
    226.1555	  39336.3086
    226.1587	  30943.3555
    226.1619	  18106.1055
    226.1652	   5898.7148
    226.1684	   1317.0778
    226.1716	    421.7716
    226.1745	      0.0000
    226.1777	      0.0000
    226.1810	      0.0000
