# ljz_20131022_MR_Chym1_ELUTE.mzML
#
# index: 4761
# id: controllerType=0 controllerNumber=1 scan=11022
# scanNumber: 11022
# massAnalyzerType: quadrupole
# scanEvent: 2
# msLevel: 2
# retentionTime: 2704.65
# filterString: FTMS + p NSI d Full ms2 974.09@hcd28.00 [100.00-3000.00]
# mzLow: 99.0035
# mzHigh: 3030.84
# basePeakMZ: 204.087
# basePeakIntensity: 101008
# totalIonCurrent: 614604
# precursorCount: 1
# precursor 0: 973.756 681257
# binary (919): 
     99.0035	      0.0000
     99.0044	      0.0000
     99.0053	      0.0000
     99.0063	      0.0000
    115.0296	      0.0000
    115.0307	      0.0000
    115.0319	      0.0000
    115.0331	      0.0000
    115.0342	    563.1946
    115.0354	   1516.1897
    115.0366	   4103.7275
    115.0377	   6267.2959
    115.0389	   6691.7173
    115.0401	   4556.7461
    115.0413	   2312.5613
    115.0424	    953.3139
    115.0437	      0.0000
    115.0449	      0.0000
    115.0461	      0.0000
    115.0472	      0.0000
    126.0428	      0.0000
    126.0441	      0.0000
    126.0455	      0.0000
    126.0468	      0.0000
    126.0482	    826.0473
    126.0495	   1224.5529
    126.0508	   3122.9189
    126.0522	   9557.4043
    126.0535	  19303.3516
    126.0549	  29667.7363
    126.0562	  30067.4473
    126.0576	  19353.6621
    126.0589	   9134.8037
    126.0602	   1895.2666
    126.0616	      0.0000
    126.0629	      0.0000
    126.0642	      0.0000
    126.0656	      0.0000
    126.0669	      0.0000
    127.0283	      0.0000
    127.0297	      0.0000
    127.0310	      0.0000
    127.0324	      0.0000
    127.0338	    183.0936
    127.0351	   1345.6332
    127.0365	   4919.1763
    127.0378	   9695.3193
    127.0392	  14585.1670
    127.0406	  13655.3516
    127.0419	   8376.8682
    127.0433	   3528.9807
    127.0446	    466.2466
    127.0457	      0.0000
    127.0471	      0.0000
    127.0484	      0.0000
    127.0498	      0.0000
    132.0589	      0.0000
    132.0604	      0.0000
    132.0618	      0.0000
    132.0633	      0.0000
    132.0647	    758.6420
    132.0661	   1300.7852
    132.0676	   1671.5210
    132.0690	   1625.8796
    132.0704	   1124.2538
    132.0719	    474.7493
    132.0733	      0.0000
    132.0748	    620.4785
    132.0762	   1439.8799
    132.0776	   1964.3632
    132.0791	   1737.4587
    132.0805	    982.5676
    132.0821	      0.0000
    132.0836	      0.0000
    132.0850	      0.0000
    132.0864	      0.0000
    138.0402	      0.0000
    138.0418	      0.0000
    138.0433	      0.0000
    138.0448	      0.0000
    138.0464	    855.9244
    138.0479	   1918.9926
    138.0494	   5232.0591
    138.0510	  16473.4746
    138.0525	  42011.7305
    138.0541	  69988.1641
    138.0556	  84804.9609
    138.0571	  62085.9453
    138.0587	  34505.8633
    138.0602	   9888.8711
    138.0618	   1618.8362
    138.0633	     97.3106
    138.0646	      0.0000
    138.0662	      0.0000
    138.0677	      0.0000
    138.0692	      0.0000
    139.0470	      0.0000
    139.0485	      0.0000
    139.0501	      0.0000
    139.0516	      0.0000
    139.0532	    462.4266
    139.0547	   1372.2655
    139.0563	   3477.9021
    139.0579	   5477.1152
    139.0594	   5400.1143
    139.0610	   3340.8386
    139.0625	   1393.3479
    139.0641	    494.2764
    139.0657	      0.0000
    139.0672	      0.0000
    139.0688	      0.0000
    139.0703	      0.0000
    144.0540	      0.0000
    144.0556	      0.0000
    144.0573	      0.0000
    144.0589	      0.0000
    144.0606	    911.6695
    144.0622	   2356.2461
    144.0638	   4672.5439
    144.0655	   6628.5303
    144.0671	   5418.7285
    144.0688	   3027.7620
    144.0704	   1169.7682
    144.0721	    452.8293
    144.0740	      0.0000
    144.0757	      0.0000
    144.0773	      0.0000
    144.0789	      0.0000
    145.0368	      0.0000
    145.0384	      0.0000
    145.0401	      0.0000
    145.0417	      0.0000
    145.0434	    520.1579
    145.0451	   2057.9739
    145.0467	   6152.5928
    145.0484	  10682.9990
    145.0500	  13945.7920
    145.0517	  10838.9316
    145.0533	   6200.0796
    145.0550	   1758.4934
    145.0567	      0.0000
    145.0580	      0.0000
    145.0597	      0.0000
    145.0613	      0.0000
    145.0630	      0.0000
    160.5876	      0.0000
    160.5895	      0.0000
    160.5914	      0.0000
    160.5934	      0.0000
    160.5953	    466.2385
    160.5972	   1078.0471
    160.5991	   1425.2823
    160.6011	   1253.4292
    160.6030	    702.4819
    160.6049	      0.0000
    160.6069	      0.0000
    160.6088	      0.0000
    160.6107	      0.0000
    163.0437	      0.0000
    163.0457	      0.0000
    163.0477	      0.0000
    163.0496	      0.0000
    163.0516	    347.9089
    163.0536	   1545.8533
    163.0556	   6028.2964
    163.0575	  12555.4287
    163.0595	  19460.8203
    163.0615	  19309.6504
    163.0635	  12323.8809
    163.0654	   5755.5142
    163.0674	   1369.9819
    163.0694	     65.0279
    163.0715	      0.0000
    163.0735	      0.0000
    163.0755	      0.0000
    163.0775	      0.0000
    168.0477	      0.0000
    168.0498	      0.0000
    168.0518	      0.0000
    168.0539	      0.0000
    168.0560	    607.1147
    168.0580	   2290.7676
    168.0601	   8085.7012
    168.0622	  20774.1074
    168.0642	  34708.4648
    168.0663	  41625.0352
    168.0684	  30178.0605
    168.0704	  16633.9141
    168.0725	   4805.6523
    168.0746	    999.2377
    168.0764	      0.0000
    168.0785	      0.0000
    168.0806	      0.0000
    168.0826	      0.0000
    169.0563	      0.0000
    169.0584	      0.0000
    169.0604	      0.0000
    169.0625	      0.0000
    169.0646	    500.6789
    169.0667	   1263.1080
    169.0688	   1808.9622
    169.0709	   1721.7321
    169.0730	   1085.0653
    169.0750	    409.3874
    169.0774	      0.0000
    169.0795	      0.0000
    169.0816	      0.0000
    169.0837	      0.0000
    186.0567	      0.0000
    186.0591	      0.0000
    186.0615	      0.0000
    186.0639	      0.0000
    186.0663	    419.8219
    186.0687	   2484.0391
    186.0711	   8785.8281
    186.0736	  16501.6816
    186.0760	  23739.3418
    186.0784	  20835.0059
    186.0808	  12579.6035
    186.0832	   4973.6924
    186.0856	    984.5755
    186.0878	      0.0000
    186.0903	      0.0000
    186.0927	      0.0000
    186.0951	      0.0000
    204.0534	      0.0000
    204.0562	      0.0000
    204.0589	      0.0000
    204.0617	      0.0000
    204.0645	      0.0000
    204.0672	      0.0000
    204.0700	      0.0000
    204.0732	   2520.4736
    204.0759	   4698.7813
    204.0787	  13575.4395
    204.0815	  40907.8086
    204.0842	  73175.0781
    204.0870	 100668.9297
    204.0898	  84101.0781
    204.0925	  50140.5938
    204.0953	  18411.8477
    204.0981	   3827.7234
    204.1008	    758.9194
    204.1032	      0.0000
    204.1059	      0.0000
    204.1087	      0.0000
    204.1115	      0.0000
    204.1142	      0.0000
    204.1170	      0.0000
    204.1198	      0.0000
    204.1225	      0.0000
    205.0691	      0.0000
    205.0719	      0.0000
    205.0747	      0.0000
    205.0775	      0.0000
    205.0802	    920.6954
    205.0830	   3239.0049
    205.0858	   6207.0688
    205.0886	   9208.4404
    205.0914	   8827.8779
    205.0942	   5565.9341
    205.0970	   2507.1572
    205.0997	    288.8100
    205.1026	      0.0000
    205.1053	      0.0000
    205.1081	      0.0000
    205.1109	      0.0000
    241.0505	      0.0000
    241.0540	      0.0000
    241.0576	      0.0000
    241.0611	      0.0000
    241.0647	    612.1896
    241.0682	   1144.7092
    241.0718	   1370.1541
    241.0753	   1128.2760
    241.0789	    620.2628
    241.0826	      0.0000
    241.0861	      0.0000
    241.0897	      0.0000
    241.0932	      0.0000
    271.0892	      0.0000
    271.0935	      0.0000
    271.0977	      0.0000
    271.1019	      0.0000
    271.1062	    838.1887
    271.1104	   1407.9922
    271.1146	   1666.9663
    271.1189	   1430.4706
    271.1231	    863.0696
    271.1274	      0.0000
    271.1317	      0.0000
    271.1359	      0.0000
    271.1401	      0.0000
    285.1077	      0.0000
    285.1123	      0.0000
    285.1169	      0.0000
    285.1214	      0.0000
    285.1260	    684.3487
    285.1306	   1339.9884
    285.1351	   1772.9552
    285.1397	   1735.3099
    285.1443	   1321.0858
    285.1488	    824.2529
    285.1535	      0.0000
    285.1581	      0.0000
    285.1626	      0.0000
    285.1672	      0.0000
    303.1101	      0.0000
    303.1151	      0.0000
    303.1202	      0.0000
    303.1252	      0.0000
    303.1302	    401.8656
    303.1352	   1174.8531
    303.1402	   2051.0227
    303.1452	   2384.5171
    303.1502	   1891.2740
    303.1552	    957.2314
    303.1603	      0.0000
    303.1653	      0.0000
    303.1703	      0.0000
    303.1753	      0.0000
    333.9817	      0.0000
    333.9875	      0.0000
    333.9932	      0.0000
    333.9990	      0.0000
    334.0048	    806.8455
    334.0106	   1330.6426
    334.0164	   1630.5177
    334.0222	   1545.2214
    334.0280	   1106.7031
    334.0337	      0.0000
    334.0395	      0.0000
    334.0453	      0.0000
    334.0511	      0.0000
    366.0855	      0.0000
    366.0922	      0.0000
    366.0988	      0.0000
    366.1055	      0.0000
    366.1121	    297.5050
    366.1187	   1285.5715
    366.1254	   5153.8066
    366.1320	   9793.5488
    366.1387	  13726.2568
    366.1453	  11415.0674
    366.1520	   6684.2373
    366.1586	   2297.2390
    366.1653	    410.3623
    366.1723	      0.0000
    366.1789	      0.0000
    366.1856	      0.0000
    366.1922	      0.0000
    369.1076	      0.0000
    369.1143	      0.0000
    369.1210	      0.0000
    369.1277	      0.0000
    369.1345	    392.7867
    369.1412	   1251.7069
    369.1479	   2357.0276
    369.1546	   3014.3325
    369.1614	   2721.2302
    369.1681	   1709.2257
    369.1748	    711.9530
    369.1819	      0.0000
    369.1886	      0.0000
    369.1953	      0.0000
    369.2021	      0.0000
    443.6970	      0.0000
    443.7059	      0.0000
    443.7147	      0.0000
    443.7236	      0.0000
    443.7325	    917.4254
    443.7413	   1387.2465
    443.7502	   1509.0431
    443.7591	   1228.7147
    443.7679	    735.4273
    443.7773	      0.0000
    443.7862	      0.0000
    443.7950	      0.0000
    443.8039	      0.0000
    528.1212	      0.0000
    528.1328	      0.0000
    528.1443	      0.0000
    528.1558	      0.0000
    528.1673	    487.2710
    528.1788	   1379.2164
    528.1903	   2098.9460
    528.2018	   2178.3447
    528.2134	   1638.5148
    528.2249	    937.7593
    528.2364	      0.0000
    528.2479	      0.0000
    528.2594	    778.4669
    528.2709	   1392.7811
    528.2824	   2164.5725
    528.2940	   2688.4282
    528.3055	   2522.4521
    528.3170	   1662.2728
    528.3285	    661.5893
    528.3401	      0.0000
    528.3516	      0.0000
    528.3631	      0.0000
    528.3746	      0.0000
    557.1977	      0.0000
    557.2101	      0.0000
    557.2226	      0.0000
    557.2351	      0.0000
    557.2476	   1101.0493
    557.2600	   1776.5344
    557.2725	   1891.7993
    557.2850	   1374.1125
    557.2975	    640.6094
    557.3100	      0.0000
    557.3225	      0.0000
    557.3350	      0.0000
    557.3475	      0.0000
    611.1947	      0.0000
    611.2091	      0.0000
    611.2234	      0.0000
    611.2377	      0.0000
    611.2521	    732.1520
    611.2664	   1337.3112
    611.2807	   1646.5155
    611.2951	   1476.7357
    611.3094	    969.9042
    611.3238	      0.0000
    611.3381	      0.0000
    611.3524	      0.0000
    611.3668	      0.0000
    622.2790	      0.0000
    622.2937	      0.0000
    622.3084	      0.0000
    622.3231	      0.0000
    622.3379	   1001.2464
    622.3526	   1467.7343
    622.3673	   1569.1396
    622.3821	   1247.7915
    622.3968	    702.2327
    622.4115	      0.0000
    622.4263	      0.0000
    622.4410	      0.0000
    622.4557	      0.0000
    668.1327	      0.0000
    668.1491	      0.0000
    668.1654	      0.0000
    668.1818	      0.0000
    668.1982	    795.8368
    668.2146	   1948.3029
    668.2310	   4636.6079
    668.2474	   5629.5703
    668.2638	   4039.9268
    668.2801	   2119.2651
    668.2965	    923.8798
    668.3130	      0.0000
    668.3294	      0.0000
    668.3458	      0.0000
    668.3621	      0.0000
    711.8946	      0.0000
    711.9126	      0.0000
    711.9306	      0.0000
    711.9486	      0.0000
    711.9667	    916.7545
    711.9847	   1331.8035
    712.0027	   1447.9410
    712.0207	   1205.6342
    712.0388	    737.6163
    712.0568	      0.0000
    712.0749	      0.0000
    712.0929	      0.0000
    712.1109	      0.0000
    766.7639	      0.0000
    766.7840	      0.0000
    766.8042	      0.0000
    766.8243	      0.0000
    766.8444	    847.6643
    766.8646	   1551.3329
    766.8847	   1958.9435
    766.9049	   1777.1498
    766.9250	   1141.0328
    766.9452	      0.0000
    766.9653	      0.0000
    766.9855	      0.0000
    767.0056	      0.0000
    767.5499	      0.0000
    767.5701	      0.0000
    767.5903	      0.0000
    767.6104	      0.0000
    767.6306	    652.6343
    767.6508	   1233.8533
    767.6709	   1531.7738
    767.6911	   1333.1600
    767.7113	    779.4775
    767.7315	      0.0000
    767.7517	      0.0000
    767.7718	      0.0000
    767.7920	      0.0000
    775.2724	      0.0000
    775.2929	      0.0000
    775.3134	      0.0000
    775.3339	      0.0000
    775.3543	   1010.7610
    775.3748	   3071.0911
    775.3953	   5298.1772
    775.4158	   6338.1089
    775.4363	   4463.4077
    775.4567	   2322.2749
    775.4772	    687.0056
    775.4977	      0.0000
    775.5182	      0.0000
    775.5387	      0.0000
    775.5592	      0.0000
    775.7846	      0.0000
    775.8051	      0.0000
    775.8256	      0.0000
    775.8461	      0.0000
    775.8666	    668.1964
    775.8871	   1851.3070
    775.9076	   2961.9976
    775.9281	   3195.4661
    775.9486	   2389.3613
    775.9691	   1184.4078
    775.9896	    339.6114
    776.0102	      0.0000
    776.0307	      0.0000
    776.0512	      0.0000
    776.0717	      0.0000
    876.6728	      0.0000
    876.6974	      0.0000
    876.7220	      0.0000
    876.7466	      0.0000
    876.7713	     51.8685
    876.7959	   1949.1830
    876.8205	   1334.3149
    876.8544	   2432.6846
    876.8791	   5960.4150
    876.9037	  17170.8145
    876.9283	  31689.6504
    876.9530	  45287.4141
    876.9776	  39950.5703
    877.0022	  23989.2246
    877.0269	   9014.2334
    877.0515	   1008.7158
    877.0690	      0.0000
    877.0937	      0.0000
    877.1183	      0.0000
    877.1430	      0.0000
    877.2415	      0.0000
    877.2662	      0.0000
    877.2908	      0.0000
    877.3155	      0.0000
    877.3401	   1128.5599
    877.3648	   2746.3777
    877.3894	   9580.2715
    877.4141	  21465.3281
    877.4387	  34282.8203
    877.4634	  37041.3555
    877.4880	  24881.1660
    877.5127	  12561.5000
    877.5373	   3021.8257
    877.5620	    309.4806
    877.5890	      0.0000
    877.6137	      0.0000
    877.6384	      0.0000
    877.6630	      0.0000
    877.7617	      0.0000
    877.7864	      0.0000
    877.8110	      0.0000
    877.8357	      0.0000
    877.8604	    859.7347
    877.8850	   3168.3770
    877.9097	   8818.4473
    877.9344	  14881.3604
    877.9591	  18838.2227
    877.9837	  14363.7344
    878.0084	   8209.6309
    878.0331	   2274.5515
    878.0578	     11.7380
    878.0779	      0.0000
    878.1026	      0.0000
    878.1272	      0.0000
    878.1519	      0.0000
    878.3000	      0.0000
    878.3247	      0.0000
    878.3494	      0.0000
    878.3741	      0.0000
    878.3988	    968.1624
    878.4235	   2260.1829
    878.4482	   3232.7146
    878.4729	   3115.6868
    878.4976	   2008.5526
    878.5223	    802.0840
    878.5470	      0.0000
    878.5717	      0.0000
    878.5964	      0.0000
    878.6211	      0.0000
    897.8029	      0.0000
    897.8285	      0.0000
    897.8540	      0.0000
    897.8795	      0.0000
    897.9050	    592.7221
    897.9305	   1234.2195
    897.9561	   1575.1646
    897.9816	   1379.0419
    898.0071	    817.1498
    898.0326	      0.0000
    898.0582	      0.0000
    898.0837	      0.0000
    898.1092	      0.0000
    901.3090	      0.0000
    901.3346	      0.0000
    901.3603	      0.0000
    901.3860	      0.0000
    901.4116	    880.4717
    901.4373	   1599.5503
    901.4630	   1848.0872
    901.4887	   1423.7867
    901.5143	    667.0027
    901.5512	      0.0000
    901.5769	      0.0000
    901.6025	      0.0000
    901.6282	      0.0000
    922.3157	      0.0000
    922.3423	      0.0000
    922.3689	      0.0000
    922.3954	      0.0000
    922.4220	    424.5170
    922.4486	   1489.4945
    922.4751	   4296.2085
    922.5017	   7502.2935
    922.5283	   9983.4238
    922.5549	   7971.9370
    922.5815	   4552.0967
    922.6080	   1220.2256
    922.6346	      0.0000
    922.6501	      0.0000
    922.6766	      0.0000
    922.7032	      0.0000
    922.7298	      0.0000
    923.3150	      0.0000
    923.3416	      0.0000
    923.3682	      0.0000
    923.3948	      0.0000
    923.4215	    550.2113
    923.4481	   1421.6500
    923.4747	   3588.1914
    923.5013	   5570.7451
    923.5279	   5667.9512
    923.5546	   3708.8916
    923.5812	   1479.0297
    923.6078	    506.0985
    923.6344	      0.0000
    923.6611	      0.0000
    923.6877	      0.0000
    923.7143	      0.0000
    924.3537	      0.0000
    924.3804	      0.0000
    924.4071	      0.0000
    924.4337	      0.0000
    924.4604	    788.7761
    924.4870	   1196.8506
    924.5137	   1396.5205
    924.5404	   1209.6646
    924.5670	    715.4269
    924.5937	      0.0000
    924.6204	      0.0000
    924.6470	      0.0000
    924.6737	      0.0000
    931.8092	      0.0000
    931.8362	      0.0000
    931.8631	      0.0000
    931.8901	      0.0000
    931.9171	    722.0598
    931.9441	   1284.0432
    931.9711	   1536.4254
    931.9981	   1304.6219
    932.0251	    759.1442
    932.0521	      0.0000
    932.0791	      0.0000
    932.1061	      0.0000
    932.1331	      0.0000
    972.9457	      0.0000
    972.9745	      0.0000
    973.0033	      0.0000
    973.0321	      0.0000
    973.0609	    717.7005
    973.0897	   1372.2487
    973.1185	   1629.4069
    973.1473	   1297.6493
    973.1760	    640.9286
    973.2292	      0.0000
    973.2580	      0.0000
    973.2868	      0.0000
    973.3156	      0.0000
    978.2594	      0.0000
    978.2885	      0.0000
    978.3175	      0.0000
    978.3465	      0.0000
    978.3755	    393.0603
    978.4046	   1483.6779
    978.4336	   3635.3799
    978.4626	   6979.1504
    978.4917	  10550.9590
    978.5207	  10973.3438
    978.5497	   7132.1191
    978.5788	   3334.1421
    978.6078	    181.4663
    978.6125	      0.0000
    978.6415	      0.0000
    978.6706	      0.0000
    978.6996	      0.0000
    978.7867	      0.0000
    978.8158	      0.0000
    978.8448	      0.0000
    978.8739	      0.0000
    978.9029	   1023.8649
    978.9320	   2717.4446
    978.9610	   4798.9263
    978.9901	   6266.8384
    979.0191	   4896.8926
    979.0482	   1950.6135
    979.0773	    666.9163
    979.1063	      0.0000
    979.1354	      0.0000
    979.1644	      0.0000
    979.1935	      0.0000
    979.2807	      0.0000
    979.3098	      0.0000
    979.3388	      0.0000
    979.3679	      0.0000
    979.3970	    844.7620
    979.4261	   1850.0331
    979.4551	   2913.0210
    979.4842	   3388.2805
    979.5133	   2912.2122
    979.5424	   1779.2610
    979.5714	    700.4656
    979.6005	      0.0000
    979.6296	      0.0000
    979.6587	      0.0000
    979.6878	      0.0000
    979.8041	      0.0000
    979.8332	      0.0000
    979.8623	      0.0000
    979.8914	      0.0000
    979.9205	   1045.8169
    979.9496	   2071.2063
    979.9787	   2751.0518
    980.0078	   2602.9199
    980.0369	   1750.6533
    980.0660	    791.2884
    980.0951	      0.0000
    980.1242	      0.0000
