# ljz_20131022_MR_Chym1_ELUTE.mzML
#
# index: 3948
# id: controllerType=0 controllerNumber=1 scan=9997
# scanNumber: 9997
# massAnalyzerType: quadrupole
# scanEvent: 2
# msLevel: 2
# retentionTime: 2523.17
# filterString: FTMS + p NSI d Full ms2 539.64@hcd28.00 [100.00-1675.00]
# mzLow: 99.0036
# mzHigh: 1692.13
# basePeakMZ: 540.269
# basePeakIntensity: 249805
# totalIonCurrent: 3.86241e+006
# precursorCount: 1
# precursor 0: 539.643 2.15038e+006
# binary (5326): 
     99.0036	      0.0000
     99.0045	      0.0000
     99.0054	      0.0000
     99.0064	      0.0000
    100.9992	      0.0000
    101.0002	      0.0000
    101.0012	      0.0000
    101.0021	      0.0000
    101.0031	    347.9240
    101.0041	   1090.2815
    101.0050	   2015.8646
    101.0060	   2500.2224
    101.0069	   2140.7405
    101.0079	   1206.5203
    101.0089	    424.7614
    101.0101	      0.0000
    101.0110	      0.0000
    101.0120	      0.0000
    101.0130	      0.0000
    101.0621	      0.0000
    101.0631	      0.0000
    101.0640	      0.0000
    101.0650	      0.0000
    101.0660	    653.7336
    101.0669	   1734.8813
    101.0679	   3855.2148
    101.0688	  10620.5137
    101.0698	  30333.2754
    101.0708	  53128.8711
    101.0717	  71779.0313
    101.0727	  58553.5586
    101.0737	  34456.1133
    101.0746	  11646.0928
    101.0756	   1688.3578
    101.0766	      0.0000
    101.0773	      0.0000
    101.0782	      0.0000
    101.0792	      0.0000
    101.0801	      0.0000
    102.0501	      0.0000
    102.0510	      0.0000
    102.0520	      0.0000
    102.0530	      0.0000
    102.0540	    879.0124
    102.0550	   1373.9689
    102.0559	   1617.9683
    102.0569	   1443.7156
    102.0579	    956.6976
    102.0589	      0.0000
    102.0598	      0.0000
    102.0608	      0.0000
    102.0618	      0.0000
    102.0687	      0.0000
    102.0696	      0.0000
    102.0706	      0.0000
    102.0716	      0.0000
    102.0726	    497.9782
    102.0735	   1246.4615
    102.0745	   1756.5520
    102.0755	   1624.7026
    102.0765	    984.4712
    102.0775	    316.8080
    102.0784	      0.0000
    102.0794	      0.0000
    102.0804	      0.0000
    102.0814	      0.0000
    103.0152	      0.0000
    103.0162	      0.0000
    103.0171	      0.0000
    103.0181	      0.0000
    103.0191	    380.0829
    103.0201	   1046.6135
    103.0211	   1622.4972
    103.0221	   1718.9614
    103.0231	   1291.8124
    103.0241	    651.5662
    103.0251	      0.0000
    103.0261	      0.0000
    103.0271	      0.0000
    103.0280	      0.0000
    104.0594	      0.0000
    104.0604	      0.0000
    104.0614	      0.0000
    104.0624	      0.0000
    104.0635	     18.2401
    104.0645	   2181.4065
    104.0655	   1144.8948
    104.0667	   2084.2690
    104.0677	   5049.9155
    104.0687	  15028.1357
    104.0697	  33142.0742
    104.0707	  52968.3008
    104.0717	  58303.9336
    104.0727	  39512.2266
    104.0738	  20145.8125
    104.0748	   4632.8438
    104.0758	    179.5008
    104.0765	      0.0000
    104.0775	      0.0000
    104.0785	      0.0000
    104.0795	      0.0000
    106.0272	      0.0000
    106.0282	      0.0000
    106.0292	      0.0000
    106.0303	      0.0000
    106.0313	    793.2598
    106.0323	   1286.8046
    106.0334	   1435.8856
    106.0344	   1125.7421
    106.0354	    594.4981
    106.0367	      0.0000
    106.0378	      0.0000
    106.0388	      0.0000
    106.0398	      0.0000
    110.0640	      0.0000
    110.0651	      0.0000
    110.0662	      0.0000
    110.0673	      0.0000
    110.0684	    951.7866
    110.0695	   3534.9529
    110.0705	   7190.6548
    110.0716	  11003.3965
    110.0727	  10432.8662
    110.0738	   6342.7456
    110.0749	   2583.3545
    110.0760	    289.9560
    110.0768	      0.0000
    110.0779	      0.0000
    110.0790	      0.0000
    110.0801	      0.0000
    115.0143	      0.0000
    115.0155	      0.0000
    115.0166	      0.0000
    115.0178	      0.0000
    115.0190	    709.5054
    115.0201	   1353.3278
    115.0213	   1794.6926
    115.0225	   1760.2859
    115.0237	   1308.0806
    115.0248	    748.8707
    115.0260	      0.0000
    115.0271	      0.0000
    115.0283	      0.0000
    115.0295	      0.0000
    120.0566	      0.0000
    120.0579	      0.0000
    120.0591	      0.0000
    120.0604	      0.0000
    120.0616	    745.3623
    120.0629	   2292.1326
    120.0641	   4863.4341
    120.0654	   7592.1455
    120.0666	   7708.9097
    120.0679	   4801.7144
    120.0691	   2023.9257
    120.0704	    151.2446
    120.0718	      0.0000
    120.0730	      0.0000
    120.0743	      0.0000
    120.0755	      0.0000
    120.0768	    684.7808
    120.0780	   2482.9688
    120.0793	   6153.6289
    120.0805	  10218.3203
    120.0818	  11699.2461
    120.0830	   8172.3740
    120.0843	   4321.7422
    120.0855	   1003.4005
    120.0868	      0.0000
    120.0879	      0.0000
    120.0891	      0.0000
    120.0904	      0.0000
    120.0916	      0.0000
    122.0706	      0.0000
    122.0719	      0.0000
    122.0732	      0.0000
    122.0745	      0.0000
    122.0758	    401.4749
    122.0770	   1746.8187
    122.0783	   6295.1753
    122.0796	  13778.1494
    122.0809	  21929.1289
    122.0821	  23495.4727
    122.0834	  15736.4443
    122.0847	   8000.9165
    122.0860	   2012.9941
    122.0873	     69.8644
    122.0884	      0.0000
    122.0897	      0.0000
    122.0910	      0.0000
    122.0923	      0.0000
    126.0465	      0.0000
    126.0479	      0.0000
    126.0492	      0.0000
    126.0506	      0.0000
    126.0519	    872.4819
    126.0532	   1660.8040
    126.0546	   2171.4912
    126.0559	   2042.1530
    126.0573	   1360.6215
    126.0586	    592.3053
    126.0599	      0.0000
    126.0613	      0.0000
    126.0626	      0.0000
    126.0640	      0.0000
    129.0551	      0.0000
    129.0565	      0.0000
    129.0579	      0.0000
    129.0593	      0.0000
    129.0607	    352.3742
    129.0620	    994.8012
    129.0634	   3020.4116
    129.0648	   5439.5171
    129.0662	   7333.0562
    129.0676	   5978.4629
    129.0690	   3504.9299
    129.0704	   1215.3041
    129.0718	    398.9258
    129.0735	      0.0000
    129.0749	      0.0000
    129.0763	      0.0000
    129.0776	      0.0000
    129.0902	      0.0000
    129.0916	      0.0000
    129.0929	      0.0000
    129.0943	      0.0000
    129.0957	    179.6084
    129.0971	   1246.4733
    129.0985	   4372.4224
    129.0999	  13192.6133
    129.1013	  23652.3438
    129.1027	  32815.9297
    129.1041	  27880.8965
    129.1055	  16676.1816
    129.1069	   6225.0557
    129.1083	   1017.1392
    129.1096	      0.0000
    129.1107	      0.0000
    129.1121	      0.0000
    129.1135	      0.0000
    129.1149	      0.0000
    130.0397	      0.0000
    130.0411	      0.0000
    130.0425	      0.0000
    130.0439	      0.0000
    130.0453	    416.7214
    130.0467	   1191.6743
    130.0482	   2343.2073
    130.0496	   3153.9307
    130.0510	   2996.9495
    130.0524	   1964.1342
    130.0538	    794.6219
    130.0552	      0.0000
    130.0566	      0.0000
    130.0580	      0.0000
    130.0594	      0.0000
    130.0960	      0.0000
    130.0974	      0.0000
    130.0988	      0.0000
    130.1002	      0.0000
    130.1016	    489.3737
    130.1030	   1187.4335
    130.1044	   1979.8888
    130.1058	   2393.7971
    130.1073	   2127.3838
    130.1087	   1346.5240
    130.1101	    546.8997
    130.1115	      0.0000
    130.1129	      0.0000
    130.1143	      0.0000
    130.1157	      0.0000
    131.1082	      0.0000
    131.1097	      0.0000
    131.1111	      0.0000
    131.1125	      0.0000
    131.1139	    950.0137
    131.1154	   3628.6477
    131.1168	   7108.6528
    131.1182	  10210.4941
    131.1196	   8832.8828
    131.1211	   5252.9072
    131.1225	   1877.2578
    131.1239	    303.5361
    131.1253	      0.0000
    131.1267	      0.0000
    131.1282	      0.0000
    131.1296	      0.0000
    132.0560	      0.0000
    132.0574	      0.0000
    132.0589	      0.0000
    132.0603	      0.0000
    132.0618	      0.0000
    132.0632	      0.0000
    132.0646	      0.0000
    132.0661	      0.0000
    132.0675	      0.0000
    132.0692	      0.0000
    132.0707	      0.0000
    132.0721	      0.0000
    132.0736	      0.0000
    132.0865	      0.0000
    132.0880	      0.0000
    132.0894	      0.0000
    132.0908	      0.0000
    132.0923	      0.0000
    132.0937	   2041.5902
    132.0952	   4505.6460
    132.0966	   9469.0166
    132.0980	  27147.1113
    132.0995	  79990.5391
    132.1009	 142693.8125
    132.1024	 196872.5938
    132.1038	 165857.3750
    132.1052	  99301.1953
    132.1067	  37122.0469
    132.1081	   7689.9243
    132.1096	   1137.9832
    132.1107	      0.0000
    132.1122	      0.0000
    132.1136	   1901.2196
    132.1150	    668.6240
    132.1170	      0.0000
    132.1184	      0.0000
    132.1198	      0.0000
    132.1213	      0.0000
    133.0946	      0.0000
    133.0961	      0.0000
    133.0976	      0.0000
    133.0990	      0.0000
    133.1005	    658.2728
    133.1019	   2082.1809
    133.1034	   5447.9146
    133.1048	   9236.6631
    133.1063	  11405.5518
    133.1078	   8362.1553
    133.1092	   4574.3892
    133.1107	   1052.0833
    133.1121	      0.0000
    133.1131	      0.0000
    133.1145	      0.0000
    133.1160	      0.0000
    133.1175	      0.0000
    134.9826	      0.0000
    134.9841	      0.0000
    134.9856	      0.0000
    134.9871	      0.0000
    134.9886	    466.0499
    134.9901	   1235.3671
    134.9916	   2200.5835
    134.9931	   2851.0823
    134.9945	   2764.1721
    134.9960	   1991.0765
    134.9975	   1026.4650
    134.9990	    351.6414
    135.0005	      0.0000
    135.0020	      0.0000
    135.0034	      0.0000
    135.0049	      0.0000
    138.0461	      0.0000
    138.0477	      0.0000
    138.0492	      0.0000
    138.0507	      0.0000
    138.0523	   1009.4416
    138.0538	   1685.3376
    138.0553	   1983.7886
    138.0569	   1712.4106
    138.0584	   1062.2396
    138.0600	    437.4566
    138.0615	      0.0000
    138.0630	      0.0000
    138.0645	      0.0000
    138.0661	      0.0000
    141.0910	      0.0000
    141.0926	      0.0000
    141.0942	      0.0000
    141.0958	      0.0000
    141.0974	    662.0572
    141.0989	   1673.7184
    141.1005	   3641.8665
    141.1021	   5364.2124
    141.1037	   4597.1934
    141.1053	   2254.5481
    141.1069	    989.3022
    141.1085	      0.0000
    141.1101	      0.0000
    141.1117	      0.0000
    141.1133	      0.0000
    141.2421	      0.0000
    141.2437	      0.0000
    141.2453	      0.0000
    141.2469	      0.0000
    141.2485	    523.8090
    141.2501	   1022.0164
    141.2517	   1362.9252
    141.2533	   1321.4542
    141.2549	    920.8404
    141.2565	      0.0000
    141.2581	      0.0000
    141.2597	      0.0000
    141.2613	      0.0000
    143.1074	      0.0000
    143.1091	      0.0000
    143.1107	      0.0000
    143.1123	      0.0000
    143.1139	    820.1603
    143.1156	   1921.8375
    143.1172	   2905.3774
    143.1188	   3065.3887
    143.1204	   2284.0515
    143.1221	   1146.6539
    143.1237	    338.0892
    143.1253	      0.0000
    143.1269	      0.0000
    143.1286	      0.0000
    143.1302	      0.0000
    144.0818	      0.0000
    144.0835	      0.0000
    144.0851	      0.0000
    144.0868	      0.0000
    144.0884	      0.0000
    144.0900	      0.0000
    144.0917	      0.0000
    144.0936	   3013.2817
    144.0952	   4404.0171
    144.0968	  12034.4521
    144.0985	  38918.1016
    144.1001	  77055.2109
    144.1018	 116770.7266
    144.1034	 112838.0547
    144.1050	  71257.9922
    144.1067	  32596.5020
    144.1083	   7917.0806
    144.1100	   1649.6156
    144.1116	   1622.1641
    144.1132	   1136.8073
    144.1147	   1806.2632
    144.1163	    227.1939
    144.1179	      0.0000
    144.1196	      0.0000
    144.1212	      0.0000
    144.1229	      0.0000
    144.1248	      0.0000
    144.1265	      0.0000
    144.1281	      0.0000
    144.1297	      0.0000
    145.0931	      0.0000
    145.0947	      0.0000
    145.0964	      0.0000
    145.0980	      0.0000
    145.0997	   1019.0261
    145.1013	   2116.8438
    145.1030	   5804.5537
    145.1047	   9946.4336
    145.1063	  12556.2568
    145.1080	   9276.0527
    145.1096	   5060.4282
    145.1113	   1209.8047
    145.1130	     19.2165
    145.1143	      0.0000
    145.1159	      0.0000
    145.1176	      0.0000
    145.1193	      0.0000
    146.0808	      0.0000
    146.0825	      0.0000
    146.0842	      0.0000
    146.0858	      0.0000
    146.0875	    483.0613
    146.0892	   1479.8158
    146.0909	   2779.6038
    146.0925	   5091.7236
    146.0942	   4023.3906
    146.0959	   1977.4087
    146.0976	    875.6698
    146.0992	      0.0000
    146.1009	      0.0000
    146.1026	      0.0000
    146.1043	      0.0000
    147.0655	      0.0000
    147.0672	      0.0000
    147.0689	      0.0000
    147.0706	      0.0000
    147.0722	    880.0442
    147.0739	   1798.9249
    147.0756	   2478.0364
    147.0773	   2389.5049
    147.0790	   1589.0929
    147.0807	    662.3056
    147.0825	      0.0000
    147.0841	      0.0000
    147.0858	      0.0000
    147.0875	      0.0000
    149.0357	      0.0000
    149.0374	      0.0000
    149.0391	      0.0000
    149.0408	      0.0000
    149.0426	    632.5507
    149.0443	   1344.1909
    149.0460	   1620.0082
    149.0477	   1254.0188
    149.0495	    578.8539
    149.0511	      0.0000
    149.0529	      0.0000
    149.0546	      0.0000
    149.0563	      0.0000
    155.0685	      0.0000
    155.0703	      0.0000
    155.0721	      0.0000
    155.0740	      0.0000
    155.0758	    330.9860
    155.0776	   1195.4728
    155.0795	   2524.6409
    155.0813	   5018.5874
    155.0831	   4603.8052
    155.0850	   2285.7810
    155.0868	   1023.0931
    155.0886	      0.0000
    155.0905	      0.0000
    155.0923	      0.0000
    155.0941	      0.0000
    155.1069	      0.0000
    155.1088	      0.0000
    155.1106	      0.0000
    155.1124	      0.0000
    155.1143	    572.6533
    155.1161	   1149.5266
    155.1179	   1458.7786
    155.1198	   1270.1941
    155.1216	    719.7316
    155.1235	      0.0000
    155.1253	      0.0000
    155.1272	      0.0000
    155.1290	      0.0000
    157.0509	      0.0000
    157.0527	      0.0000
    157.0546	      0.0000
    157.0565	      0.0000
    157.0583	    826.3084
    157.0602	   1517.0813
    157.0621	   1778.8160
    157.0639	   1397.1600
    157.0658	    691.3305
    157.0677	      0.0000
    157.0695	      0.0000
    157.0714	      0.0000
    157.0733	      0.0000
    157.1200	      0.0000
    157.1218	      0.0000
    157.1237	      0.0000
    157.1256	      0.0000
    157.1274	    538.4572
    157.1293	   1391.0386
    157.1312	   3484.2214
    157.1331	   5713.5474
    157.1349	   5944.7065
    157.1368	   3748.4258
    157.1387	   1395.8452
    157.1405	    452.5766
    157.1424	      0.0000
    157.1443	      0.0000
    157.1461	      0.0000
    157.1480	      0.0000
    158.0695	      0.0000
    158.0714	      0.0000
    158.0733	      0.0000
    158.0752	      0.0000
    158.0771	   1048.5018
    158.0789	   2350.0762
    158.0808	   3384.3091
    158.0827	   4589.7603
    158.0846	   2234.5012
    158.0865	    942.0031
    158.0884	      0.0000
    158.0903	      0.0000
    158.0921	      0.0000
    158.0940	      0.0000
    159.0619	      0.0000
    159.0638	      0.0000
    159.0658	      0.0000
    159.0677	      0.0000
    159.0696	    362.5761
    159.0715	   1113.5808
    159.0734	   3109.3875
    159.0753	   5322.0605
    159.0772	   6391.5605
    159.0791	   4636.9976
    159.0810	   2517.9568
    159.0829	    807.3738
    159.0848	      0.0000
    159.0867	      0.0000
    159.0886	      0.0000
    159.0905	      0.0000
    166.0345	      0.0000
    166.0365	      0.0000
    166.0386	      0.0000
    166.0406	      0.0000
    166.0426	    368.1262
    166.0447	   1140.3759
    166.0467	   3301.5986
    166.0487	   5469.0039
    166.0507	   5953.3716
    166.0528	   3811.0762
    166.0548	   1685.9420
    166.0568	    707.0175
    166.0589	      0.0000
    166.0609	      0.0000
    166.0629	      0.0000
    166.0649	      0.0000
    166.0710	      0.0000
    166.0731	      0.0000
    166.0751	      0.0000
    166.0771	      0.0000
    166.0792	    523.2048
    166.0812	   2031.8185
    166.0832	   4504.0996
    166.0852	   7270.8062
    166.0873	   8001.6489
    166.0893	   5382.1006
    166.0913	   2666.4075
    166.0934	    472.8610
    166.0954	      0.0000
    166.0974	      0.0000
    166.0995	      0.0000
    166.1015	      0.0000
    167.0416	      0.0000
    167.0436	      0.0000
    167.0456	      0.0000
    167.0477	      0.0000
    167.0497	    492.1979
    167.0518	   1493.6554
    167.0538	   2610.6726
    167.0559	   3141.6501
    167.0579	   2698.6807
    167.0600	   1623.0762
    167.0620	    684.5945
    167.0641	      0.0000
    167.0661	      0.0000
    167.0682	      0.0000
    167.0702	      0.0000
    169.0479	      0.0000
    169.0500	      0.0000
    169.0520	      0.0000
    169.0541	      0.0000
    169.0562	    121.2446
    169.0583	   1148.7980
    169.0604	   2240.3611
    169.0625	   2642.5269
    169.0646	   2108.0623
    169.0666	   1144.6732
    169.0687	    432.6894
    169.0708	      0.0000
    169.0729	      0.0000
    169.0750	      0.0000
    169.0771	      0.0000
    169.0833	      0.0000
    169.0854	      0.0000
    169.0875	      0.0000
    169.0896	      0.0000
    169.0917	    650.0175
    169.0938	   1685.0471
    169.0958	   2722.3726
    169.0979	   3077.5593
    169.1000	   2476.4771
    169.1021	   1378.6337
    169.1042	    542.6873
    169.1063	      0.0000
    169.1083	      0.0000
    169.1104	      0.0000
    169.1125	      0.0000
    171.0991	      0.0000
    171.1012	      0.0000
    171.1033	      0.0000
    171.1054	      0.0000
    171.1076	    772.3928
    171.1097	   1543.1667
    171.1118	   2095.8972
    171.1139	   2029.6646
    171.1160	   1389.0114
    171.1182	    625.7426
    171.1204	      0.0000
    171.1225	      0.0000
    171.1246	      0.0000
    171.1267	      0.0000
    173.1144	      0.0000
    173.1166	      0.0000
    173.1187	      0.0000
    173.1209	      0.0000
    173.1231	    550.1454
    173.1252	   1423.4028
    173.1274	   2227.5190
    173.1295	   2412.4399
    173.1317	   1854.0325
    173.1339	    972.4420
    173.1360	      0.0000
    173.1382	      0.0000
    173.1403	      0.0000
    173.1425	      0.0000
    174.0733	      0.0000
    174.0755	      0.0000
    174.0777	      0.0000
    174.0799	      0.0000
    174.0820	    417.2114
    174.0842	   1260.9812
    174.0864	   2147.7036
    174.0886	   2495.6079
    174.0907	   2086.7234
    174.0929	   1249.9639
    174.0951	    514.7324
    174.0974	      0.0000
    174.0996	      0.0000
    174.1018	      0.0000
    174.1040	      0.0000
    177.0700	      0.0000
    177.0722	      0.0000
    177.0745	      0.0000
    177.0767	      0.0000
    177.0789	    885.0942
    177.0812	   2896.0181
    177.0834	   8406.7422
    177.0856	  14299.3936
    177.0879	  18101.6348
    177.0901	  13600.6387
    177.0923	   7621.7217
    177.0946	   2143.2258
    177.0968	    232.2522
    177.0989	      0.0000
    177.1011	      0.0000
    177.1034	      0.0000
    177.1056	      0.0000
    178.0370	      0.0000
    178.0393	      0.0000
    178.0416	      0.0000
    178.0438	      0.0000
    178.0461	    468.4525
    178.0483	   1252.3315
    178.0506	   2385.7561
    178.0528	   3140.3518
    178.0551	   2922.0288
    178.0573	   1877.2620
    178.0596	    758.0372
    178.0619	      0.0000
    178.0642	      0.0000
    178.0664	      0.0000
    178.0687	      0.0000
    182.1145	      0.0000
    182.1168	      0.0000
    182.1192	      0.0000
    182.1215	      0.0000
    182.1238	    651.3636
    182.1262	   1276.9015
    182.1285	   1602.3821
    182.1308	   1352.9132
