# ljz_20131022_MR_Chym1_ELUTE.mzML
#
# index: 6931
# id: controllerType=0 controllerNumber=1 scan=14731
# scanNumber: 14731
# massAnalyzerType: quadrupole
# scanEvent: 2
# msLevel: 2
# retentionTime: 3524.69
# filterString: FTMS + p NSI d Full ms2 1015.13@hcd28.00 [100.00-3130.00]
# mzLow: 99.0035
# mzHigh: 3162.21
# basePeakMZ: 204.087
# basePeakIntensity: 44810.1
# totalIonCurrent: 222874
# precursorCount: 1
# precursor 0: 1014.46 385726
# binary (381): 
     99.0035	      0.0000
     99.0044	      0.0000
     99.0053	      0.0000
     99.0063	      0.0000
    115.0284	      0.0000
    115.0296	      0.0000
    115.0307	      0.0000
    115.0319	      0.0000
    115.0331	    571.0460
    115.0342	   1614.1799
    115.0354	   3983.2383
    115.0366	   6506.7524
    115.0377	   7701.3809
    115.0389	   5795.1099
    115.0401	   3333.3181
    115.0413	   1026.6176
    115.0424	    494.0091
    115.0436	      0.0000
    115.0448	      0.0000
    115.0459	      0.0000
    115.0471	      0.0000
    126.0440	      0.0000
    126.0453	      0.0000
    126.0467	      0.0000
    126.0480	      0.0000
    126.0494	    477.1692
    126.0507	   1499.2064
    126.0521	   5093.8345
    126.0534	  10939.5879
    126.0547	  17164.1152
    126.0561	  18132.7129
    126.0574	  12043.3271
    126.0588	   6009.1484
    126.0601	   1378.9635
    126.0615	      0.0000
    126.0627	      0.0000
    126.0640	      0.0000
    126.0654	      0.0000
    126.0667	      0.0000
    127.0295	      0.0000
    127.0308	      0.0000
    127.0322	      0.0000
    127.0336	      0.0000
    127.0349	    611.5200
    127.0363	   1998.1272
    127.0376	   4252.0063
    127.0390	   6576.7783
    127.0403	   6371.7002
    127.0417	   3950.0923
    127.0431	   1703.6052
    127.0444	    642.3634
    127.0457	      0.0000
    127.0470	      0.0000
    127.0484	      0.0000
    127.0498	      0.0000
    137.9385	      0.0000
    137.9401	      0.0000
    137.9416	      0.0000
    137.9431	      0.0000
    137.9447	    685.7520
    137.9462	   1157.6896
    137.9478	   1325.3975
    137.9493	   1091.1801
    137.9508	    620.1852
    137.9525	      0.0000
    137.9540	      0.0000
    137.9556	      0.0000
    137.9571	      0.0000
    138.0417	      0.0000
    138.0432	      0.0000
    138.0448	      0.0000
    138.0463	      0.0000
    138.0478	    737.7997
    138.0494	   1861.5171
    138.0509	   6278.0708
    138.0525	  17870.1172
    138.0540	  30365.0898
    138.0555	  38423.9453
    138.0571	  29010.1914
    138.0586	  16449.1367
    138.0602	   4868.6768
    138.0617	    885.4207
    138.0631	      0.0000
    138.0646	      0.0000
    138.0662	      0.0000
    138.0677	      0.0000
    139.0501	      0.0000
    139.0516	      0.0000
    139.0532	      0.0000
    139.0547	      0.0000
    139.0563	    974.8913
    139.0579	   1731.8428
    139.0594	   1893.5328
    139.0610	   1353.1785
    139.0625	    591.9871
    139.0641	      0.0000
    139.0657	      0.0000
    139.0672	      0.0000
    139.0688	      0.0000
    144.0540	      0.0000
    144.0557	      0.0000
    144.0573	      0.0000
    144.0589	      0.0000
    144.0606	    462.4844
    144.0622	   1381.6082
    144.0639	   2558.8762
    144.0655	   3313.2349
    144.0671	   3099.4319
    144.0688	   2064.7520
    144.0704	    943.8449
    144.0720	      0.0000
    144.0737	      0.0000
    144.0753	      0.0000
    144.0770	      0.0000
    145.0381	      0.0000
    145.0398	      0.0000
    145.0414	      0.0000
    145.0431	      0.0000
    145.0447	   1024.1367
    145.0464	   2936.7385
    145.0480	   5494.2705
    145.0497	   7369.5708
    145.0514	   5547.3730
    145.0530	   2923.8315
    145.0547	    541.5995
    145.0563	      0.0000
    145.0580	      0.0000
    145.0596	      0.0000
    145.0613	      0.0000
    163.0457	      0.0000
    163.0476	      0.0000
    163.0496	      0.0000
    163.0516	      0.0000
    163.0536	    631.6812
    163.0555	   1812.1978
    163.0575	   4362.8037
    163.0595	   7079.6685
    163.0615	   7584.6895
    163.0634	   4894.7065
    163.0654	   2196.6816
    163.0674	    274.1208
    163.0693	      0.0000
    163.0713	      0.0000
    163.0733	      0.0000
    163.0752	      0.0000
    168.0495	      0.0000
    168.0516	      0.0000
    168.0536	      0.0000
    168.0557	      0.0000
    168.0578	    667.7469
    168.0598	   3288.8306
    168.0619	   9510.7988
    168.0640	  16188.8838
    168.0660	  19797.2813
    168.0681	  14329.8428
    168.0702	   7799.2349
    168.0722	   2129.0779
    168.0743	    316.3444
    168.0766	      0.0000
    168.0787	      0.0000
    168.0807	      0.0000
    168.0828	      0.0000
    186.0590	      0.0000
    186.0614	      0.0000
    186.0638	      0.0000
    186.0662	      0.0000
    186.0686	    841.1385
    186.0710	   3141.4382
    186.0734	   6448.5566
    186.0758	   9848.2881
    186.0782	   9574.6758
    186.0806	   6090.3354
    186.0830	   2770.7820
    186.0855	    717.9606
    186.0878	      0.0000
    186.0902	      0.0000
    186.0926	      0.0000
    186.0950	      0.0000
    202.0662	      0.0000
    202.0689	      0.0000
    202.0716	      0.0000
    202.0744	      0.0000
    202.0771	    952.4656
    202.0798	   1570.8861
    202.0825	   1789.5996
    202.0853	   1462.2430
    202.0880	    829.1909
    202.0912	      0.0000
    202.0939	      0.0000
    202.0966	      0.0000
    202.0993	      0.0000
    204.0621	      0.0000
    204.0648	      0.0000
    204.0676	      0.0000
    204.0704	      0.0000
    204.0731	    931.0715
    204.0759	   1857.8500
    204.0787	   5707.0283
    204.0814	  17784.6445
    204.0842	  32179.8555
    204.0870	  44629.5391
    204.0897	  37498.4922
    204.0925	  22338.1465
    204.0953	   8232.1875
    204.0980	   1742.5786
    204.1008	    321.1259
    204.1032	      0.0000
    204.1059	      0.0000
    204.1087	      0.0000
    204.1115	      0.0000
    205.0719	      0.0000
    205.0747	      0.0000
    205.0775	      0.0000
    205.0802	      0.0000
    205.0830	    682.3909
    205.0858	   1782.6294
    205.0886	   2923.2351
    205.0914	   3237.9233
    205.0942	   2468.1182
    205.0970	   1242.0424
    205.0997	    432.9364
    205.1025	      0.0000
    205.1053	      0.0000
    205.1081	      0.0000
    205.1109	      0.0000
    209.7984	      0.0000
    209.8013	      0.0000
    209.8041	      0.0000
    209.8070	      0.0000
    209.8099	    850.2394
    209.8128	   1338.8831
    209.8157	   1445.2867
    209.8186	   1086.6736
    209.8214	    508.7899
    209.8246	      0.0000
    209.8275	      0.0000
    209.8304	      0.0000
    209.8332	      0.0000
    216.0727	      0.0000
    216.0757	      0.0000
    216.0787	      0.0000
    216.0817	      0.0000
    216.0847	    481.9413
    216.0877	   2197.9507
    216.0907	   7966.5479
    216.0938	  17384.4629
    216.0968	  27529.4824
    216.0998	  29031.2383
    216.1028	  19250.9434
    216.1058	   9577.3027
    216.1088	   2391.7893
    216.1118	    280.2605
    216.1146	      0.0000
    216.1177	      0.0000
    216.1207	      0.0000
    216.1237	      0.0000
    217.0822	      0.0000
    217.0853	      0.0000
    217.0883	      0.0000
    217.0913	      0.0000
    217.0944	    652.4122
    217.0974	   1380.3007
    217.1004	   1814.2172
    217.1035	   1596.4646
    217.1065	    908.7012
    217.1097	      0.0000
    217.1127	      0.0000
    217.1158	      0.0000
    217.1188	      0.0000
    258.4933	      0.0000
    258.4973	      0.0000
    258.5012	      0.0000
    258.5051	      0.0000
    258.5091	    700.5933
    258.5130	   1216.8624
    258.5170	   1416.8982
    258.5209	   1176.9921
    258.5249	    672.1907
    258.5290	      0.0000
    258.5330	      0.0000
    258.5369	      0.0000
    258.5408	      0.0000
    329.1485	      0.0000
    329.1541	      0.0000
    329.1598	      0.0000
    329.1655	      0.0000
    329.1711	   1090.2086
    329.1768	   2192.8677
    329.1825	   2838.6301
    329.1881	   2495.5227
    329.1938	   1444.7672
    329.1994	    518.8973
    329.2054	      0.0000
    329.2111	      0.0000
    329.2167	      0.0000
    329.2224	      0.0000
    366.0925	      0.0000
    366.0992	      0.0000
    366.1058	      0.0000
    366.1125	      0.0000
    366.1191	    382.6960
    366.1258	   1267.2091
    366.1324	   2554.9600
    366.1391	   3383.3020
    366.1457	   3119.7581
    366.1523	   1999.1982
    366.1590	    848.4906
    366.1662	      0.0000
    366.1728	      0.0000
    366.1795	      0.0000
    366.1861	      0.0000
    497.2102	      0.0000
    497.2207	      0.0000
    497.2313	      0.0000
    497.2418	      0.0000
    497.2523	    684.7939
    497.2628	   1608.7786
    497.2733	   2231.8020
    497.2839	   2098.2766
    497.2944	   1338.1906
    497.3049	    545.8755
    497.3157	      0.0000
    497.3262	      0.0000
    497.3367	      0.0000
    497.3472	      0.0000
    552.1668	      0.0000
    552.1791	      0.0000
    552.1914	      0.0000
    552.2037	      0.0000
    552.2160	    638.5159
    552.2283	   1148.6113
    552.2407	   1432.4871
    552.2530	   1298.8066
    552.2653	    829.6721
    552.2776	      0.0000
    552.2900	      0.0000
    552.3023	      0.0000
    552.3146	      0.0000
    605.7421	      0.0000
    605.7563	      0.0000
    605.7704	      0.0000
    605.7845	      0.0000
    605.7987	    690.7081
    605.8128	   1169.3295
    605.8270	   1386.7349
    605.8411	   1188.0353
    605.8553	    695.8196
    605.8697	      0.0000
    605.8839	      0.0000
    605.8980	      0.0000
    605.9122	      0.0000
    873.7747	      0.0000
    873.7992	      0.0000
    873.8237	      0.0000
    873.8482	      0.0000
    873.8727	    835.9509
    873.8972	   1585.9214
    873.9217	   1979.7651
    873.9462	   1755.1205
    873.9707	   1086.3153
    873.9955	      0.0000
    874.0200	      0.0000
    874.0445	      0.0000
    874.0691	      0.0000
   1136.0694	      0.0000
   1136.1057	      0.0000
   1136.1420	      0.0000
   1136.1783	      0.0000
   1136.2147	    671.3777
   1136.2510	   1366.8201
   1136.2873	   1831.0458
   1136.3237	   1634.0176
   1136.3600	    888.6843
   1136.3963	      0.0000
   1136.4327	      0.0000
   1136.4690	      0.0000
   1136.5053	      0.0000
   3161.7052	      0.0000
   3161.8738	      0.0000
   3162.0425	      0.0000
   3162.2111	      0.0000
