# ljz_20131022_MR_Chym1_ELUTE.mzML
#
# index: 1437
# id: controllerType=0 controllerNumber=1 scan=6729
# scanNumber: 6729
# massAnalyzerType: quadrupole
# scanEvent: 2
# msLevel: 2
# retentionTime: 1929.44
# filterString: FTMS + p NSI d Full ms2 502.58@hcd28.00 [100.00-1560.00]
# mzLow: 99.0036
# mzHigh: 1575.94
# basePeakMZ: 145.098
# basePeakIntensity: 238730
# totalIonCurrent: 2.98787e+006
# precursorCount: 1
# precursor 0: 502.585 3.20709e+006
# binary (3842): 
     99.0036	      0.0000
     99.0045	      0.0000
     99.0055	      0.0000
     99.0064	      0.0000
    100.0699	      0.0000
    100.0708	      0.0000
    100.0718	      0.0000
    100.0727	      0.0000
    100.0737	    824.0234
    100.0746	   2489.5063
    100.0756	   4529.4941
    100.0765	   5823.6909
    100.0775	   4163.9795
    100.0784	   2128.8528
    100.0794	    942.1497
    100.0803	    499.1953
    100.0815	      0.0000
    100.0824	      0.0000
    100.0834	      0.0000
    100.0843	      0.0000
    101.0631	      0.0000
    101.0640	      0.0000
    101.0650	      0.0000
    101.0659	      0.0000
    101.0669	    847.7031
    101.0679	   2288.7766
    101.0688	   6630.2515
    101.0698	  18660.1426
    101.0708	  32315.3359
    101.0717	  43211.2148
    101.0727	  35089.3359
    101.0737	  20648.1016
    101.0746	   7052.8994
    101.0756	    876.1641
    101.0766	      0.0000
    101.0776	      0.0000
    101.0786	      0.0000
    101.0795	      0.0000
    102.0475	      0.0000
    102.0485	      0.0000
    102.0494	      0.0000
    102.0504	      0.0000
    102.0514	    684.6508
    102.0524	   1456.9663
    102.0534	   4393.0601
    102.0543	   9386.6094
    102.0553	  14821.3232
    102.0563	  15507.5615
    102.0573	   9999.0303
    102.0582	   4623.0708
    102.0592	    650.6410
    102.0601	      0.0000
    102.0610	      0.0000
    102.0620	      0.0000
    102.0630	      0.0000
    110.0629	      0.0000
    110.0640	      0.0000
    110.0651	      0.0000
    110.0662	      0.0000
    110.0673	    274.6694
    110.0684	   1343.0652
    110.0695	   4710.3062
    110.0706	   9250.6221
    110.0717	  13873.4658
    110.0728	  12973.2891
    110.0738	   7907.9595
    110.0749	   3272.2012
    110.0760	    313.0661
    110.0768	      0.0000
    110.0779	      0.0000
    110.0790	      0.0000
    110.0801	      0.0000
    112.0789	      0.0000
    112.0800	      0.0000
    112.0811	      0.0000
    112.0823	      0.0000
    112.0834	    616.5859
    112.0845	   1998.4624
    112.0856	   4501.0688
    112.0868	   7203.3765
    112.0879	   7278.1563
    112.0890	   4519.2944
    112.0901	   1909.4526
    112.0913	    255.5418
    112.0924	      0.0000
    112.0935	      0.0000
    112.0946	      0.0000
    112.0958	      0.0000
    113.0634	      0.0000
    113.0645	      0.0000
    113.0656	      0.0000
    113.0668	      0.0000
    113.0679	    630.6308
    113.0691	   1585.8734
    113.0702	   2714.0747
    113.0714	   4806.8672
    113.0725	   3746.0024
    113.0736	   1926.8350
    113.0748	    909.2446
    113.0759	    383.7921
    113.0770	      0.0000
    113.0782	      0.0000
    113.0793	      0.0000
    113.0805	      0.0000
    115.0787	      0.0000
    115.0799	      0.0000
    115.0810	      0.0000
    115.0822	      0.0000
    115.0834	    636.6003
    115.0845	   2952.7090
    115.0857	   5560.6704
    115.0869	   7727.6187
    115.0881	   6158.0923
    115.0892	   3443.7263
    115.0904	    937.9761
    115.0916	    572.9410
    115.0927	      0.0000
    115.0939	      0.0000
    115.0951	      0.0000
    115.0962	      0.0000
    116.0627	      0.0000
    116.0639	      0.0000
    116.0651	      0.0000
    116.0663	      0.0000
    116.0675	    696.1023
    116.0686	   1750.3218
    116.0698	   3775.7556
    116.0710	   5008.7090
    116.0722	   3771.6338
    116.0734	   1880.6229
    116.0746	    811.1937
    116.0757	      0.0000
    116.0769	      0.0000
    116.0781	      0.0000
    116.0793	      0.0000
    119.0733	      0.0000
    119.0745	      0.0000
    119.0757	      0.0000
    119.0769	      0.0000
    119.0782	    521.0344
    119.0794	   1487.7189
    119.0806	   2684.4668
    119.0819	   4962.0503
    119.0831	   2923.8132
    119.0843	   1781.1906
    119.0856	    691.5179
    119.0870	      0.0000
    119.0882	      0.0000
    119.0894	      0.0000
    119.0907	      0.0000
    126.0454	      0.0000
    126.0468	      0.0000
    126.0481	      0.0000
    126.0495	      0.0000
    126.0508	    700.3256
    126.0521	   2764.1011
    126.0535	   5769.0830
    126.0548	   8991.3008
    126.0562	   9148.3955
    126.0575	   5869.7148
    126.0589	   2759.5635
    126.0602	    450.1193
    126.0617	      0.0000
    126.0631	      0.0000
    126.0644	      0.0000
    126.0658	      0.0000
    127.0761	      0.0000
    127.0774	      0.0000
    127.0788	      0.0000
    127.0801	      0.0000
    127.0815	    703.3644
    127.0829	   1270.4016
    127.0842	   4079.3867
    127.0856	   7988.7231
    127.0869	  12061.6680
    127.0883	  11723.9209
    127.0897	   7364.9917
    127.0910	   3329.2881
    127.0924	    507.1955
    127.0933	      0.0000
    127.0946	      0.0000
    127.0960	      0.0000
    127.0974	      0.0000
    129.0565	      0.0000
    129.0579	      0.0000
    129.0593	      0.0000
    129.0607	      0.0000
    129.0621	    810.9467
    129.0635	   3239.1558
    129.0648	   5650.7466
    129.0662	   7310.8726
    129.0676	   5533.2969
    129.0690	   3066.0723
    129.0704	    606.2101
    129.0720	      0.0000
    129.0734	      0.0000
    129.0748	      0.0000
    129.0762	      0.0000
    129.0887	      0.0000
    129.0901	      0.0000
    129.0915	      0.0000
    129.0929	      0.0000
    129.0943	    391.2654
    129.0957	   1042.0603
    129.0971	   2508.8643
    129.0985	   8057.1006
    129.0999	  24711.9336
    129.1013	  44655.7734
    129.1027	  62339.0000
    129.1040	  53104.0117
    129.1054	  31859.2109
    129.1068	  12081.2705
    129.1082	   2352.9521
    129.1096	    244.7094
    129.1107	      0.0000
    129.1121	      0.0000
    129.1135	      0.0000
    129.1149	      0.0000
    130.0411	      0.0000
    130.0425	      0.0000
    130.0439	      0.0000
    130.0454	      0.0000
    130.0468	    471.6282
    130.0482	   1227.1639
    130.0496	   1976.8130
    130.0510	   2205.2122
    130.0524	   1733.3333
    130.0538	    914.7393
    130.0552	      0.0000
    130.0566	      0.0000
    130.0580	      0.0000
    130.0594	      0.0000
    130.0974	      0.0000
    130.0988	      0.0000
    130.1002	      0.0000
    130.1016	      0.0000
    130.1030	    702.1323
    130.1045	   1700.6068
    130.1059	   2433.6265
    130.1073	   2390.6150
    130.1087	   1679.5170
    130.1101	    836.9725
    130.1115	      0.0000
    130.1129	      0.0000
    130.1143	      0.0000
    130.1157	      0.0000
    131.0727	      0.0000
    131.0741	      0.0000
    131.0755	      0.0000
    131.0769	      0.0000
    131.0783	    831.6094
    131.0798	   2816.5049
    131.0812	   4702.6553
    131.0826	   5582.7480
    131.0840	   3972.5383
    131.0855	   2062.8142
    131.0869	    798.2094
    131.0883	      0.0000
    131.0897	      0.0000
    131.0911	      0.0000
    131.0926	      0.0000
    133.0519	      0.0000
    133.0534	      0.0000
    133.0549	      0.0000
    133.0563	      0.0000
    133.0578	    668.9224
    133.0592	   1124.0687
    133.0607	   1278.9147
    133.0621	   1019.3264
    133.0636	    520.5802
    133.0650	      0.0000
    133.0665	      0.0000
    133.0679	      0.0000
    133.0694	      0.0000
    138.0446	      0.0000
    138.0461	      0.0000
    138.0477	      0.0000
    138.0492	      0.0000
    138.0507	    403.0609
    138.0523	   1168.8733
    138.0538	   1997.8757
    138.0554	   2310.2336
    138.0569	   1854.2965
    138.0584	    984.4875
    138.0600	    284.1372
    138.0615	      0.0000
    138.0630	      0.0000
    138.0646	      0.0000
    138.0661	      0.0000
    141.0560	      0.0000
    141.0576	      0.0000
    141.0592	      0.0000
    141.0608	      0.0000
    141.0624	    558.1153
    141.0640	   1272.2100
    141.0656	   1752.8759
    141.0672	   1629.5197
    141.0688	   1011.2451
    141.0703	    369.7108
    141.0721	      0.0000
    141.0737	      0.0000
    141.0753	      0.0000
    141.0769	      0.0000
    145.0780	      0.0000
    145.0797	      0.0000
    145.0813	      0.0000
    145.0830	      0.0000
    145.0846	    671.3439
    145.0863	   1895.5648
    145.0879	   4877.1455
    145.0896	   6800.0083
    145.0913	  15839.0977
    145.0929	  49839.5273
    145.0946	 122446.3516
    145.0962	 201716.3125
    145.0979	 237522.8438
    145.0995	 170142.5000
    145.1012	  92931.0469
    145.1029	  26592.7207
    145.1045	   5436.0747
    145.1062	   2413.2493
    145.1077	   2874.3821
    145.1093	   1348.0753
    145.1110	      0.0000
    145.1126	      0.0000
    145.1143	      0.0000
    145.1160	      0.0000
    145.1176	      0.0000
    145.5597	      0.0000
    145.5614	      0.0000
    145.5630	      0.0000
    145.5647	      0.0000
    145.5664	    780.7483
    145.5680	   1210.5879
    145.5697	   1339.0129
    145.5714	   1083.9937
    145.5730	    621.8732
    145.5756	      0.0000
    145.5773	      0.0000
    145.5790	      0.0000
    145.5806	      0.0000
    146.0885	      0.0000
    146.0901	      0.0000
    146.0918	      0.0000
    146.0935	      0.0000
    146.0952	    377.3231
    146.0968	   2602.5566
    146.0985	   5738.6582
    146.1002	   9386.1836
    146.1019	  11968.0938
    146.1035	   9384.1279
    146.1052	   5315.5415
    146.1069	   1483.6781
    146.1086	      0.0000
    146.1093	      0.0000
    146.1110	      0.0000
    146.1126	      0.0000
    146.1143	      0.0000
    147.0655	      0.0000
    147.0672	      0.0000
    147.0689	      0.0000
    147.0706	      0.0000
    147.0723	    528.2114
    147.0740	   1463.3184
    147.0756	   2404.9453
    147.0773	   2685.4155
    147.0790	   2091.8728
    147.0807	   1086.8173
    147.0824	    338.5314
    147.0841	      0.0000
    147.0858	      0.0000
    147.0875	      0.0000
    147.0892	      0.0000
    151.9281	      0.0000
    151.9299	      0.0000
    151.9317	      0.0000
    151.9335	      0.0000
    151.9352	    699.5539
    151.9370	   1160.2805
    151.9388	   1304.7737
    151.9406	   1031.4282
    151.9423	    530.7429
    151.9446	      0.0000
    151.9464	      0.0000
    151.9482	      0.0000
    151.9499	      0.0000
    155.0672	      0.0000
    155.0690	      0.0000
    155.0708	      0.0000
    155.0727	      0.0000
    155.0745	    398.0404
    155.0763	   1098.7300
    155.0782	   3560.2693
    155.0800	   6804.1504
    155.0818	   9823.6348
    155.0837	   8539.6719
    155.0855	   5041.7861
    155.0873	   1817.1338
    155.0892	    246.5200
    155.0905	      0.0000
    155.0923	      0.0000
    155.0941	      0.0000
    155.0960	      0.0000
    156.0531	      0.0000
    156.0549	      0.0000
    156.0568	      0.0000
    156.0586	      0.0000
    156.0605	    647.5177
    156.0623	   1633.0569
    156.0642	   2725.8428
    156.0660	   3157.5073
    156.0679	   2530.4600
    156.0697	   1322.2163
    156.0716	    492.1848
    156.0735	    555.5802
    156.0754	   1131.8608
    156.0772	   1433.9304
    156.0791	   1097.2292
    156.0809	    429.0759
    156.0827	      0.0000
    156.0846	      0.0000
    156.0864	      0.0000
    156.0883	      0.0000
    157.0957	      0.0000
    157.0976	      0.0000
    157.0994	      0.0000
    157.1013	      0.0000
    157.1032	    395.3102
    157.1050	   1227.7872
    157.1069	   2291.0112
    157.1088	   2692.3445
    157.1107	   2116.0068
    157.1125	   1083.0251
    157.1144	    336.0517
    157.1162	      0.0000
    157.1181	      0.0000
    157.1200	      0.0000
    157.1219	      0.0000
    158.0790	      0.0000
    158.0808	      0.0000
    158.0827	      0.0000
    158.0846	      0.0000
    158.0865	    792.2100
    158.0884	   2727.1213
    158.0903	   5440.7949
    158.0922	   8144.2070
    158.0940	   7503.0674
    158.0959	   4534.9229
    158.0978	   1790.7625
    158.0997	    706.8204
    158.1016	      0.0000
    158.1035	      0.0000
    158.1054	      0.0000
    158.1073	      0.0000
    159.0620	      0.0000
    159.0639	      0.0000
    159.0658	      0.0000
    159.0677	      0.0000
    159.0696	    732.9615
    159.0715	   3010.8560
    159.0734	   7614.9165
    159.0753	  12611.5703
    159.0772	  14656.1445
    159.0791	  10293.1787
    159.0810	   5496.9590
    159.0829	   1406.1849
    159.0848	     21.9384
    159.0867	      0.0000
    159.0886	      0.0000
    159.0905	      0.0000
    159.0924	      0.0000
    167.0416	      0.0000
    167.0436	      0.0000
    167.0457	      0.0000
    167.0477	      0.0000
    167.0498	    894.2596
    167.0518	   1822.0444
    167.0539	   2518.6201
    167.0559	   2492.5088
    167.0580	   1773.2932
    167.0600	    859.6159
    167.0620	      0.0000
    167.0641	      0.0000
    167.0661	      0.0000
    167.0682	      0.0000
    167.0702	      0.0000
    167.0723	      0.0000
    167.0743	      0.0000
    167.0764	    814.2723
    167.0784	   1961.8760
    167.0805	   3954.3147
    167.0825	   4422.8926
    167.0846	   2313.4897
    167.0866	   1023.4464
    167.0888	      0.0000
    167.0909	      0.0000
    167.0929	      0.0000
    167.0950	      0.0000
    173.0692	      0.0000
    173.0714	      0.0000
    173.0735	      0.0000
    173.0757	      0.0000
    173.0778	    673.1030
    173.0800	   2111.6687
    173.0822	   2973.4548
    173.0843	   7894.1089
    173.0865	  26508.2949
    173.0886	  67671.0000
    173.0908	 112392.8281
    173.0930	 135014.5156
    173.0951	  98474.2109
    173.0973	  54846.9336
    173.0994	  16407.3965
    173.1016	   3499.8818
    173.1038	    943.9127
    173.1058	      0.0000
    173.1079	      0.0000
    173.1101	      0.0000
    173.1123	      0.0000
    173.1144	      0.0000
    173.1166	      0.0000
    173.1187	      0.0000
    173.1209	      0.0000
    173.1231	      0.0000
    173.1252	      0.0000
    173.1274	      0.0000
    173.1296	      0.0000
    173.1317	      0.0000
    173.1339	      0.0000
    173.1360	      0.0000
    173.1382	      0.0000
    173.1404	      0.0000
    173.1425	      0.0000
    174.0799	      0.0000
    174.0820	      0.0000
    174.0842	      0.0000
    174.0864	      0.0000
    174.0886	    879.5536
    174.0908	   3002.7991
    174.0929	   5517.0049
    174.0951	   7797.8140
    174.0973	   6812.1895
    174.0995	   4067.6440
    174.1017	   1519.1499
    174.1038	    593.2460
    174.1062	      0.0000
    174.1084	      0.0000
    174.1106	      0.0000
    174.1128	      0.0000
    175.0998	      0.0000
    175.1020	      0.0000
    175.1042	      0.0000
    175.1064	      0.0000
    175.1086	    699.6740
    175.1108	   2768.5725
    175.1130	   9679.2295
    175.1152	  28778.7324
    175.1174	  49607.4336
    175.1196	  65039.7305
    175.1217	  51155.5781
    175.1239	  29977.6074
    175.1261	   9894.3447
    175.1283	   2199.8113
    175.1305	    396.9825
    175.1325	      0.0000
    175.1347	      0.0000
    175.1369	      0.0000
    175.1391	      0.0000
    176.1083	      0.0000
    176.1105	      0.0000
    176.1127	      0.0000
    176.1149	      0.0000
    176.1171	    653.6667
    176.1194	   1240.8741
    176.1216	   1724.8907
    176.1238	   1817.3635
    176.1260	   1448.4038
    176.1282	    840.7518
    176.1305	      0.0000
    176.1327	      0.0000
    176.1349	      0.0000
    176.1371	      0.0000
    183.0623	      0.0000
    183.0647	      0.0000
    183.0670	      0.0000
    183.0694	      0.0000
    183.0717	    935.8134
    183.0741	   1757.2659
    183.0764	   2140.7156
    183.0788	   1810.9733
    183.0811	   1051.4659
    183.0835	    369.0025
    183.0858	      0.0000
    183.0882	      0.0000
    183.0905	      0.0000
    183.0929	      0.0000
    183.0976	      0.0000
    183.0999	      0.0000
    183.1023	      0.0000
    183.1046	      0.0000
    183.1070	    477.1003
    183.1093	   1139.4574
    183.1117	   1615.0052
    183.1140	   1542.3762
    183.1164	    979.2817
    183.1187	      0.0000
    183.1211	      0.0000
    183.1234	      0.0000
    183.1258	      0.0000
    184.0933	      0.0000
    184.0957	      0.0000
    184.0981	      0.0000
    184.1004	      0.0000
    184.1028	    482.5398
    184.1052	   1142.6621
    184.1075	   1634.1466
    184.1099	   1586.0459
    184.1123	   1031.5770
    184.1146	      0.0000
    184.1170	      0.0000
    184.1194	      0.0000
    184.1218	      0.0000
    185.0781	      0.0000
    185.0805	      0.0000
    185.0829	      0.0000
    185.0853	      0.0000
    185.0877	   1026.7211
    185.0901	   1703.6722
    185.0925	   1775.8008
    185.0949	   1167.6077
    185.0972	    399.4749
    185.0996	      0.0000
    185.1020	      0.0000
    185.1044	      0.0000
    185.1068	      0.0000
    187.0570	      0.0000
    187.0595	      0.0000
    187.0619	      0.0000
    187.0643	      0.0000
    187.0667	    852.2739
    187.0692	   1751.5314
    187.0716	   2346.4177
    187.0740	   2202.2854
    187.0765	   1432.6489
    187.0789	    594.9214
    187.0814	      0.0000
    187.0838	      0.0000
    187.0862	      0.0000
    187.0886	      0.0000
    195.0583	      0.0000
    195.0609	      0.0000
    195.0635	      0.0000
    195.0661	      0.0000
    195.0686	    697.8784
    195.0712	   1656.5133
    195.0738	   3825.2759
    195.0764	   5416.6133
    195.0790	   4924.2559
    195.0816	   2244.4229
    195.0841	   1117.2307
    195.0867	    381.2790
    195.0893	      0.0000
    195.0919	      0.0000
    195.0945	      0.0000
    195.0970	      0.0000
    198.0246	      0.0000
    198.0273	      0.0000
    198.0299	      0.0000
    198.0325	      0.0000
    198.0352	    636.4573
    198.0378	   1090.7659
    198.0405	   1277.7889
    198.0431	   1070.1211
    198.0458	    607.1579
    198.0484	      0.0000
    198.0510	      0.0000
    198.0537	      0.0000
    198.0563	      0.0000
    199.0915	      0.0000
    199.0941	      0.0000
    199.0968	      0.0000
    199.0995	      0.0000
    199.1021	    989.0593
    199.1048	   1852.1681
    199.1075	   2371.2402
    199.1101	   2146.9707
    199.1128	   1352.2438
    199.1155	    533.0729
    199.1181	      0.0000
    199.1208	      0.0000
    199.1234	      0.0000
    199.1261	      0.0000
    200.0864	      0.0000
    200.0891	      0.0000
    200.0918	      0.0000
    200.0945	      0.0000
    200.0972	    615.8229
    200.0998	   1456.3824
    200.1025	   2123.2913
    200.1052	   2123.5935
    200.1079	   1473.7294
    200.1106	    674.4647
    200.1138	      0.0000
    200.1165	      0.0000
    200.1192	      0.0000
    200.1219	      0.0000
    201.0678	      0.0000
    201.0705	      0.0000
    201.0732	      0.0000
    201.0759	      0.0000
    201.0786	    752.3235
    201.0813	   3141.1116
    201.0840	   6571.6997
    201.0867	  10105.1572
    201.0894	   9607.2285
    201.0921	   5908.7500
    201.0948	   2380.8938
    201.0975	    319.3004
    201.0997	      0.0000
    201.1024	      0.0000
    201.1051	      0.0000
    201.1078	      0.0000
    201.1105	      0.0000
    201.1132	      0.0000
    201.1159	    811.3183
    201.1186	   1785.3951
    201.1213	   2774.4878
    201.1240	   3147.5122
    201.1267	   2609.2981
    201.1294	   1528.9470
    201.1321	    611.1126
    201.1349	      0.0000
    201.1376	      0.0000
    201.1403	      0.0000
    201.1430	      0.0000
    204.0672	      0.0000
    204.0699	      0.0000
    204.0727	      0.0000
    204.0755	      0.0000
    204.0782	    407.1299
    204.0810	   1190.6998
    204.0838	   2157.3359
    204.0865	   2729.6873
    204.0893	   2494.7698
    204.0921	   1624.1149
    204.0948	    713.8611
    204.0973	      0.0000
    204.1001	      0.0000
    204.1029	      0.0000
    204.1056	      0.0000
    212.0793	      0.0000
