# ljz_20131022_MR_Chym1_ELUTE.mzML
#
# index: 262
# id: controllerType=0 controllerNumber=1 scan=5073
# scanNumber: 5073
# massAnalyzerType: quadrupole
# scanEvent: 2
# msLevel: 2
# retentionTime: 1605.12
# filterString: FTMS + p NSI d Full ms2 504.75@hcd28.00 [100.00-1050.00]
# mzLow: 99.0035
# mzHigh: 1060.72
# basePeakMZ: 156.077
# basePeakIntensity: 176220
# totalIonCurrent: 963869
# precursorCount: 1
# precursor 0: 504.749 1.62639e+006
# binary (1338): 
     99.0035	      0.0000
     99.0045	      0.0000
     99.0054	      0.0000
     99.0064	      0.0000
    107.0757	      0.0000
    107.0767	      0.0000
    107.0778	      0.0000
    107.0788	      0.0000
    107.0799	    641.8494
    107.0809	    942.7137
    107.0820	   1022.4943
    107.0830	    826.4407
    107.0841	    465.1912
    107.0854	      0.0000
    107.0865	      0.0000
    107.0875	      0.0000
    107.0886	      0.0000
    110.0586	      0.0000
    110.0597	      0.0000
    110.0608	      0.0000
    110.0619	      0.0000
    110.0630	    112.8183
    110.0641	   2027.8318
    110.0652	   2443.6128
    110.0663	   4551.6729
    110.0674	   7286.1362
    110.0685	  17056.2324
    110.0696	  48801.9297
    110.0706	  89807.7734
    110.0717	 128512.9219
    110.0728	 113888.9219
    110.0739	  69011.9922
    110.0750	  27120.8340
    110.0761	   4688.1455
    110.0772	    147.3326
    110.0780	      0.0000
    110.0791	      0.0000
    110.0802	      0.0000
    110.0813	      0.0000
    110.0823	      0.0000
    110.0834	      0.0000
    110.0845	      0.0000
    110.0856	      0.0000
    111.0672	      0.0000
    111.0683	      0.0000
    111.0695	      0.0000
    111.0706	      0.0000
    111.0717	    665.2364
    111.0728	   2610.0215
    111.0739	   4734.9780
    111.0750	   6433.4985
    111.0761	   5188.6172
    111.0772	   2922.4854
    111.0783	    695.2039
    111.0794	      0.0000
    111.0805	      0.0000
    111.0816	      0.0000
    111.0827	      0.0000
    115.8720	      0.0000
    115.8732	      0.0000
    115.8744	      0.0000
    115.8756	      0.0000
    115.8768	    716.6161
    115.8779	   1073.0895
    115.8791	   1162.2340
    115.8803	    921.7665
    115.8815	    503.1495
    115.8826	      0.0000
    115.8838	      0.0000
    115.8850	      0.0000
    115.8862	      0.0000
    119.1559	      0.0000
    119.1571	      0.0000
    119.1584	      0.0000
    119.1596	      0.0000
    119.1608	    751.0010
    119.1621	   1095.1566
    119.1633	   1166.5985
    119.1645	    907.8430
    119.1658	    467.0346
    119.1669	      0.0000
    119.1681	      0.0000
    119.1694	      0.0000
    119.1706	      0.0000
    129.0941	      0.0000
    129.0955	      0.0000
    129.0969	      0.0000
    129.0983	      0.0000
    129.0996	    466.7145
    129.1010	    961.8212
    129.1024	   1303.0582
    129.1038	   1286.9073
    129.1052	    945.0882
    129.1066	    501.8534
    129.1079	      0.0000
    129.1093	      0.0000
    129.1107	      0.0000
    129.1121	      0.0000
    138.0569	      0.0000
    138.0585	      0.0000
    138.0600	      0.0000
    138.0615	      0.0000
    138.0631	    563.3685
    138.0646	   1115.0830
    138.0662	   1495.3036
    138.0677	   1460.2491
    138.0692	   1044.4619
    138.0708	    519.1628
    138.0723	      0.0000
    138.0739	      0.0000
    138.0754	      0.0000
    138.0770	      0.0000
    143.8492	      0.0000
    143.8509	      0.0000
    143.8525	      0.0000
    143.8541	      0.0000
    143.8558	    435.8191
    143.8574	    837.6783
    143.8590	   1041.9667
    143.8607	    911.6094
    143.8623	    543.2861
    143.8639	      0.0000
    143.8656	      0.0000
    143.8672	      0.0000
    143.8689	      0.0000
    145.0497	      0.0000
    145.0514	      0.0000
    145.0530	      0.0000
    145.0547	      0.0000
    145.0563	    390.0987
    145.0580	    850.9330
    145.0596	   1177.1707
    145.0613	   1144.9984
    145.0630	    781.5751
    145.0646	      0.0000
    145.0663	      0.0000
    145.0680	      0.0000
    145.0696	      0.0000
    149.0340	      0.0000
    149.0357	      0.0000
    149.0374	      0.0000
    149.0392	      0.0000
    149.0409	    741.3918
    149.0426	   1502.3796
    149.0443	   2070.3313
    149.0461	   2022.8898
    149.0478	   1399.8235
    149.0495	    643.6097
    149.0515	      0.0000
    149.0532	      0.0000
    149.0550	      0.0000
    149.0567	      0.0000
    156.0553	      0.0000
    156.0572	      0.0000
    156.0590	      0.0000
    156.0609	      0.0000
    156.0627	      0.0000
    156.0646	   1264.6335
    156.0664	   3750.8308
    156.0683	   5473.2490
    156.0701	  11713.6094
    156.0720	  34485.3125
    156.0738	  87387.2734
    156.0757	 145154.0156
    156.0775	 175776.6875
    156.0794	 128528.1875
    156.0812	  71315.3750
    156.0831	  20315.6152
    156.0849	   3440.2278
    156.0868	    688.3616
    156.0892	      0.0000
    156.0911	      0.0000
    156.0929	      0.0000
    156.0948	      0.0000
    157.0668	      0.0000
    157.0686	      0.0000
    157.0705	      0.0000
    157.0724	      0.0000
    157.0742	    467.4509
    157.0761	   1877.3373
    157.0780	   4478.3896
    157.0798	   7464.1348
    157.0817	   8975.2168
    157.0836	   6413.5864
    157.0854	   3388.5056
    157.0873	    624.6871
    157.0882	      0.0000
    157.0901	      0.0000
    157.0920	      0.0000
    157.0938	      0.0000
    163.0832	      0.0000
    163.0852	      0.0000
    163.0871	      0.0000
    163.0891	      0.0000
    163.0911	    245.0425
    163.0931	    874.0365
    163.0950	   1914.3821
    163.0970	   3779.5100
    163.0990	   3350.8552
    163.1010	   1838.0387
    163.1029	    864.6269
    163.1049	    387.1611
    163.1069	      0.0000
    163.1089	      0.0000
    163.1109	      0.0000
    163.1129	      0.0000
    167.0437	      0.0000
    167.0457	      0.0000
    167.0477	      0.0000
    167.0498	      0.0000
    167.0518	    826.2537
    167.0539	   1495.7831
    167.0559	   1793.8286
    167.0580	   1460.7393
    167.0600	    755.7114
    167.0628	      0.0000
    167.0649	      0.0000
    167.0669	      0.0000
    167.0690	      0.0000
    167.0772	      0.0000
    167.0792	      0.0000
    167.0813	      0.0000
    167.0833	      0.0000
    167.0854	    412.4976
    167.0874	   1042.5729
    167.0895	   3162.1450
    167.0915	   5702.7524
    167.0936	   7837.5610
    167.0956	   6539.6299
    167.0977	   3788.9495
    167.0997	   1193.6979
    167.1018	      0.0000
    167.1031	      0.0000
    167.1051	      0.0000
    167.1072	      0.0000
    167.1092	      0.0000
    179.0782	      0.0000
    179.0804	      0.0000
    179.0827	      0.0000
    179.0850	      0.0000
    179.0873	    648.1893
    179.0895	   1545.5439
    179.0918	   2346.2458
    179.0941	   2446.6047
    179.0964	   1763.2062
    179.0986	    827.0496
    179.1010	      0.0000
    179.1032	      0.0000
    179.1055	      0.0000
    179.1078	      0.0000
    197.0844	      0.0000
    197.0870	      0.0000
    197.0896	      0.0000
    197.0923	      0.0000
    197.0949	    440.3147
    197.0975	   1278.1355
    197.1001	   3196.5701
    197.1028	   4617.7666
    197.1054	   3966.7813
    197.1080	   2291.9788
    197.1106	    910.6514
    197.1133	    337.8651
    197.1159	      0.0000
    197.1185	      0.0000
    197.1211	      0.0000
    197.1237	      0.0000
    201.8212	      0.0000
    201.8239	      0.0000
    201.8266	      0.0000
    201.8293	      0.0000
    201.8321	    655.8278
    201.8348	   1186.6603
    201.8375	   1404.9529
    201.8402	   1166.3845
    201.8429	    662.4322
    201.8457	      0.0000
    201.8485	      0.0000
    201.8512	      0.0000
    201.8539	      0.0000
    207.0669	      0.0000
    207.0697	      0.0000
    207.0725	      0.0000
    207.0753	      0.0000
    207.0782	    344.5614
    207.0810	    977.5978
    207.0838	   1990.8694
    207.0866	   3957.5935
    207.0895	   4045.0928
    207.0923	   1901.3280
    207.0951	    866.0693
    207.0979	    211.3199
    207.1008	      0.0000
    207.1036	      0.0000
    207.1064	      0.0000
    207.1093	      0.0000
    208.0539	      0.0000
    208.0568	      0.0000
    208.0596	      0.0000
    208.0625	      0.0000
    208.0653	    544.0887
    208.0682	   1148.7651
    208.0710	   1633.2242
    208.0739	   1684.0533
    208.0767	   1275.8058
    208.0795	    677.2120
    208.0824	      0.0000
    208.0852	      0.0000
    208.0881	      0.0000
    208.0909	      0.0000
    213.0761	      0.0000
    213.0791	      0.0000
    213.0820	      0.0000
    213.0850	      0.0000
    213.0879	    446.3914
    213.0909	   1188.4919
    213.0938	   2928.4224
    213.0968	   4573.9595
    213.0997	   4518.8335
    213.1027	   2786.2131
    213.1056	   1246.8853
    213.1086	    486.9484
    213.1120	      0.0000
    213.1150	      0.0000
    213.1179	      0.0000
    213.1209	      0.0000
    225.0659	      0.0000
    225.0691	      0.0000
    225.0723	      0.0000
    225.0755	      0.0000
    225.0787	    516.7861
    225.0819	   1009.7875
    225.0851	   1487.0186
    225.0884	   4213.5767
    225.0916	  13892.6865
    225.0948	  26789.8457
    225.0980	  39569.9609
    225.1012	  36273.5508
    225.1044	  22295.2285
    225.1076	   9416.9404
    225.1108	   2186.2437
    225.1140	    557.6854
    225.1167	      0.0000
    225.1199	      0.0000
    225.1232	      0.0000
    225.1264	      0.0000
    226.0778	      0.0000
    226.0810	      0.0000
    226.0842	      0.0000
    226.0874	      0.0000
    226.0906	    299.7513
    226.0939	    938.8458
    226.0971	   1809.7101
    226.1003	   2450.4668
    226.1035	   2411.9688
    226.1068	   1706.3633
    226.1100	    826.8256
    226.1132	    274.1996
    226.1165	      0.0000
    226.1197	      0.0000
    226.1229	      0.0000
    226.1262	      0.0000
    239.0748	      0.0000
    239.0783	      0.0000
    239.0818	      0.0000
    239.0853	      0.0000
    239.0888	    498.1271
    239.0923	   1024.9895
    239.0958	   1293.5710
    239.0993	   1092.2258
    239.1028	    577.1783
    239.1071	      0.0000
    239.1106	      0.0000
    239.1141	      0.0000
    239.1176	      0.0000
    243.0731	      0.0000
    243.0767	      0.0000
    243.0803	      0.0000
    243.0839	      0.0000
    243.0875	    460.3173
    243.0911	   1148.0260
    243.0947	   2305.2524
    243.0983	   6707.1953
    243.1019	  20483.3984
    243.1055	  37229.2500
    243.1091	  52016.5703
    243.1126	  44301.4727
    243.1162	  26586.4141
    243.1198	  10053.2363
    243.1234	   2134.5139
    243.1270	    452.7889
    243.1300	      0.0000
    243.1336	      0.0000
    243.1372	      0.0000
    243.1408	      0.0000
    244.0857	      0.0000
    244.0894	      0.0000
    244.0930	      0.0000
    244.0966	      0.0000
    244.1002	    623.1899
    244.1038	   1451.1031
    244.1074	   2356.8447
    244.1111	   4077.6841
    244.1147	   3024.1135
    244.1183	   1403.7369
    244.1219	    552.1259
    244.1257	      0.0000
    244.1294	      0.0000
    244.1330	      0.0000
    244.1366	      0.0000
    299.0272	      0.0000
    299.0322	      0.0000
    299.0371	      0.0000
    299.0420	      0.0000
    299.0469	    433.0299
    299.0518	   1148.2942
    299.0567	   1958.6880
    299.0616	   2314.1257
    299.0665	   1946.5580
    299.0714	   1140.4879
    299.0763	    429.8161
    299.0812	      0.0000
    299.0861	      0.0000
    299.0910	      0.0000
    299.0959	      0.0000
    300.0303	      0.0000
    300.0353	      0.0000
    300.0402	      0.0000
    300.0451	      0.0000
    300.0501	    530.9318
    300.0550	   1287.7098
    300.0599	   1955.0461
    300.0649	   2063.7585
    300.0698	   1531.4856
    300.0747	    749.4351
    300.0797	      0.0000
    300.0847	      0.0000
    300.0896	      0.0000
    300.0945	      0.0000
    324.1369	      0.0000
    324.1425	      0.0000
    324.1480	      0.0000
    324.1535	      0.0000
    324.1591	    542.8361
    324.1646	    945.4287
    324.1701	   1065.2051
    324.1757	    835.9627
    324.1812	    444.5782
    324.1867	      0.0000
    324.1923	      0.0000
    324.1978	      0.0000
    324.2034	      0.0000
    325.1245	      0.0000
    325.1300	      0.0000
    325.1356	      0.0000
    325.1411	      0.0000
    325.1467	    340.9603
    325.1523	    960.3264
    325.1578	   1479.7031
    325.1634	   1505.1228
    325.1690	   1020.4550
    325.1745	    422.5005
    325.1802	      0.0000
    325.1858	      0.0000
    325.1913	      0.0000
    325.1969	      0.0000
    339.7702	      0.0000
    339.7761	      0.0000
    339.7821	      0.0000
    339.7880	      0.0000
    339.7939	    816.2204
    339.7999	   1100.6127
    339.8058	   1115.0000
    339.8118	    839.1148
    339.8177	    425.2716
    339.8237	      0.0000
    339.8296	      0.0000
    339.8355	      0.0000
    339.8415	      0.0000
    340.9793	      0.0000
    340.9853	      0.0000
    340.9913	      0.0000
    340.9973	      0.0000
    341.0032	    728.1815
    341.0092	   1165.7902
    341.0152	   1335.6187
    341.0212	   1108.3007
    341.0271	    625.4261
    341.0339	      0.0000
    341.0399	      0.0000
    341.0459	      0.0000
    341.0519	      0.0000
    358.9765	      0.0000
    358.9829	      0.0000
    358.9894	      0.0000
    358.9958	      0.0000
    359.0023	    529.8619
    359.0087	   2106.8530
    359.0152	   6934.5854
    359.0216	  12891.1377
    359.0281	  18346.4043
    359.0346	  15998.8457
    359.0410	   9673.0557
    359.0475	   3782.4436
    359.0539	    767.4876
    359.0595	      0.0000
    359.0660	      0.0000
    359.0724	      0.0000
    359.0789	      0.0000
    359.9842	      0.0000
    359.9906	      0.0000
    359.9971	      0.0000
    360.0036	      0.0000
    360.0101	    352.0991
    360.0166	    969.1182
    360.0230	   1652.1079
    360.0295	   1973.5676
    360.0360	   1700.8911
    360.0425	   1039.7278
    360.0490	    443.4099
    360.0556	      0.0000
    360.0621	      0.0000
    360.0685	      0.0000
    360.0750	      0.0000
    382.1424	      0.0000
    382.1495	      0.0000
    382.1566	      0.0000
    382.1636	      0.0000
    382.1707	    859.5770
    382.1778	   1564.2339
    382.1849	   1965.5177
    382.1920	   1796.3866
    382.1991	   1192.4435
    382.2062	    552.2979
    382.2132	      0.0000
    382.2203	      0.0000
    382.2274	      0.0000
    382.2345	      0.0000
    387.7081	      0.0000
    387.7154	      0.0000
    387.7226	      0.0000
    387.7299	      0.0000
    387.7371	    540.9144
    387.7444	    918.3310
    387.7516	   1081.8405
    387.7588	    919.5132
    387.7661	    531.7767
    387.7735	      0.0000
    387.7808	      0.0000
    387.7880	      0.0000
    387.7952	      0.0000
    397.1535	      0.0000
    397.1610	      0.0000
    397.1685	      0.0000
    397.1760	      0.0000
    397.1835	    435.3351
    397.1910	   1182.8983
    397.1985	   1792.6729
    397.2060	   1832.5513
    397.2135	   1305.8326
    397.2210	    627.8556
    397.2286	      0.0000
    397.2361	      0.0000
    397.2436	      0.0000
    397.2511	      0.0000
    399.1429	      0.0000
    399.1504	      0.0000
    399.1580	      0.0000
    399.1656	      0.0000
    399.1731	    263.9164
    399.1807	    930.5136
    399.1883	   1840.0522
    399.1958	   2441.6052
    399.2034	   2333.7566
    399.2110	   1634.3721
    399.2185	    824.1894
    399.2261	      0.0000
    399.2337	      0.0000
    399.2412	      0.0000
    399.2488	      0.0000
    400.9340	      0.0000
    400.9416	      0.0000
    400.9492	      0.0000
    400.9568	      0.0000
    400.9644	    571.0825
    400.9720	   1129.7394
    400.9797	   1532.2766
    400.9873	   1491.5619
    400.9949	   1024.0895
    401.0025	    456.0328
    401.0106	      0.0000
    401.0182	      0.0000
    401.0258	      0.0000
    401.0335	      0.0000
    410.1127	      0.0000
    410.1206	      0.0000
    410.1285	      0.0000
    410.1363	      0.0000
    410.1442	    404.4212
    410.1521	   1315.4174
    410.1600	   4773.3794
    410.1679	   9488.4893
    410.1757	  14307.1240
    410.1836	  13379.5703
    410.1915	   8233.5498
    410.1994	   3477.4961
    410.2073	    771.3517
    410.2147	      0.0000
    410.2225	      0.0000
    410.2304	      0.0000
    410.2383	      0.0000
    411.1304	      0.0000
    411.1383	      0.0000
    411.1462	      0.0000
    411.1541	      0.0000
    411.1620	    551.8514
    411.1699	   1198.2780
    411.1778	   1659.7823
    411.1857	   1619.2059
    411.1936	   1104.4598
    411.2015	    503.0446
    411.2094	      0.0000
    411.2174	      0.0000
    411.2253	      0.0000
    411.2332	      0.0000
    413.2099	      0.0000
    413.2179	      0.0000
    413.2258	      0.0000
    413.2338	      0.0000
    413.2418	    459.6938
    413.2497	   1381.3359
    413.2577	   3345.4373
    413.2657	   4720.1289
    413.2737	   3810.8489
    413.2816	   2133.0591
    413.2896	    765.3378
    413.2992	      0.0000
    413.3072	      0.0000
    413.3151	      0.0000
    413.3231	      0.0000
    418.9351	      0.0000
    418.9432	      0.0000
    418.9513	      0.0000
    418.9595	      0.0000
    418.9676	    642.9366
    418.9757	   2005.2388
    418.9839	   4717.3569
    418.9920	   7713.4268
    419.0001	   8469.7422
    419.0083	   5585.2148
    419.0164	   2685.4878
    419.0245	    427.1167
    419.0312	      0.0000
    419.0394	      0.0000
    419.0475	      0.0000
    419.0556	      0.0000
    429.0355	      0.0000
    429.0439	      0.0000
    429.0523	      0.0000
    429.0607	      0.0000
    429.0692	    460.9518
    429.0776	   1211.5457
    429.0860	   1854.0754
    429.0945	   1925.7709
    429.1029	   1380.6876
    429.1113	    646.8766
    429.1198	      0.0000
    429.1282	      0.0000
    429.1366	      0.0000
    429.1451	      0.0000
    432.6661	      0.0000
    432.6746	      0.0000
    432.6832	      0.0000
    432.6917	      0.0000
    432.7002	    923.8043
    432.7088	   1537.6702
    432.7173	   1845.3500
    432.7259	   1607.0867
    432.7344	    972.0632
    432.7429	    363.6682
    432.7515	      0.0000
    432.7600	      0.0000
    432.7685	      0.0000
    432.7771	      0.0000
    442.9886	      0.0000
    442.9975	      0.0000
    443.0063	      0.0000
    443.0152	      0.0000
    443.0240	    470.7722
    443.0329	   1173.4438
    443.0417	   1926.1399
    443.0505	   2221.4631
    443.0594	   1833.0912
    443.0682	   1044.5746
    443.0771	    360.9026
    443.0859	      0.0000
    443.0948	      0.0000
    443.1036	      0.0000
    443.1125	      0.0000
    461.1735	      0.0000
    461.1829	      0.0000
    461.1923	      0.0000
    461.2017	      0.0000
    461.2111	    676.0839
    461.2205	   1401.1221
    461.2299	   1885.5673
    461.2393	   1792.4493
    461.2487	   1190.5836
    461.2581	    509.0680
    461.2715	      0.0000
    461.2809	      0.0000
    461.2903	      0.0000
    461.2997	      0.0000
    469.1420	      0.0000
    469.1516	      0.0000
    469.1613	      0.0000
    469.1709	      0.0000
    469.1806	    726.5063
    469.1902	   2135.0325
    469.1998	   5622.7026
    469.2095	   9538.1396
    469.2191	  12068.2158
    469.2288	   9066.7354
    469.2384	   5063.2822
    469.2480	   1202.0221
    469.2577	      0.0000
    469.2636	      0.0000
    469.2732	      0.0000
    469.2829	      0.0000
    469.2925	      0.0000
    472.6761	      0.0000
    472.6859	      0.0000
    472.6956	      0.0000
    472.7054	      0.0000
    472.7151	    386.5254
    472.7249	   1009.7728
    472.7346	   1532.5107
    472.7444	   1555.1438
    472.7541	   1067.4113
    472.7639	    443.8300
    472.7736	      0.0000
    472.7834	      0.0000
    472.7931	      0.0000
    472.8029	      0.0000
    479.1361	      0.0000
    479.1460	      0.0000
    479.1560	      0.0000
    479.1659	      0.0000
    479.1759	    575.1262
    479.1858	   1184.2142
    479.1957	   1539.2279
    479.2057	   1353.5166
